t,x,v,a,driving,energy
0.0,0.0,0.0,1.0,1.0,0.0
0.001,5e-07,0.0009998734375001057,0.999746875000211,0.9999988750002109,4.998739455091389e-07
0.002,1.9996219066408363e-06,0.00199924075192205,0.9992376905624281,0.999995500003375,1.998489789048461e-06
0.003,4.498356599132781e-06,0.0029980959496141656,0.9987225142444435,0.9999898750170859,4.494330131970619e-06
0.004,7.995688965554887e-06,0.00399643304197957,0.9982013511149267,0.999982000054,7.985866391597107e-06
0.005,1.249109790792303e-05,0.004994246045502654,0.9976742062690199,0.9999718751318357,1.2471558836563338e-05
0.006,1.7984056347284412e-05,0.005991528981775532,0.9971410848283043,0.9999595002733742,1.7949856622293475e-05
0.007,2.4474031228838495e-05,0.006988275877524464,0.9966019919407666,0.999944875506459,2.441919782660434e-05
0.008,3.196048352708435e-05,0.007984480764636237,0.9960569327807646,0.9999280008639958,3.18780094854376e-05
0.009000000000000001,4.044286825099437e-05,0.008980137680184519,0.9955059125489936,0.9999088763839525,4.0324707628719634e-05
0.01,4.992063444921432e-05,0.009975240666456175,0.9949489364724523,0.9998875021093592,4.975769731634814e-05
0.011,6.039322521528966e-05,0.010969783770977548,0.994386009804409,0.9998638780883079,6.0175372674305e-05
0.012,7.186007769291819e-05,0.01196376104654071,0.9938171378243669,0.9998380043739528,7.15761169308945e-05
0.013000000000000001,8.432062308122886e-05,0.01295716655122968,0.9932423258380294,0.9998098810245096,8.395830245310623e-05
0.014,9.777428664008682e-05,0.0139499943484466,0.9926615791772665,0.9997795081032559,9.7320290783102e-05
0.015,0.00011222048769542466,0.014942238506937875,0.9920749032000801,0.9997468856785308,0.00011166043267482571
0.016,0.0001276586396445997,0.0159338931008203,0.9914823032905686,0.9997120138237345,0.0001269770681307362
0.017,0.00014408814996177735,0.01692495220960712,0.9908837848588932,0.9996748926173291,0.0001432685264386613
0.018000000000000002,0.0001615084202033408,0.01791540991823408,0.9902793533412417,0.9996355221428369,0.00016053312620877317
0.019,0.00017991884601332634,0.018905260317085427,0.9896690141997956,0.9995939024888416,0.00017876917541068403
0.02,0.00019931881712888488,0.0198944975020199,0.9890527729226927,0.9995500337489875,0.00019797497141066131
0.021,0.0002197077173857695,0.020883115574396628,0.9884306350239936,0.9995039160219791,0.00021814880100896124
0.022,0.00024108492472384873,0.021871108641101072,0.9878026060436462,0.9994555494115813,0.0002392889404772812
0.023,0.0002634498111926459,0.022858470814570864,0.9871686915474499,0.999404934026619,0.00026139365559632886
0.024,0.00028680174295690405,0.023845196212821655,0.9865288971270202,0.9993520699809768,0.00028446120169350837
0.025,0.0003111400803021771,0.0248312789594729,0.9858832283997535,0.9992969573935987,0.0003084898236807216
0.026000000000000002,0.0003364641776404463,0.025816713183773623,0.9852316910087917,0.999239596388488,0.00033347775609228594
0.027,0.000362773383515763,0.026801493020628137,0.9845742906229856,0.999179987094707,0.0003594232231229643
0.028,0.00039006704060991627,0.02778561261062173,0.9839110329368602,0.9991181296463766,0.00038632443866611104
0.029,0.00041834448574812734,0.028769066100046335,0.9832419236705779,0.999054024182676,0.0004141796063519293
0.03,0.00044760504990476853,0.029751847640926116,0.9825669685699028,0.9989876708478425,0.00044298691958584094
0.031,0.00047784805820910855,0.03073395139104308,0.9818861734061645,0.9989190697911708,0.00047274456158696783
0.032,0.0005090728299510831,0.031715371513962594,0.9811995439762222,0.9988482211670138,0.0005034507054267238
0.033,0.0005412786785870908,0.03269610217905892,0.9805070861024282,0.9987751251347804,0.0005351035140675166
0.034,0.0005744649117458151,0.03367613756154066,0.9798088056325914,0.9986997818589368,0.0005677011404015593
0.035,0.0006086308312340714,0.03465547184247623,0.979104708439941,0.9986221915090054,0.0006012417272897887
0.036000000000000004,0.000643775733042679,0.035634099208819194,0.9783948004230899,0.9985423542595644,0.0006357234076008936
0.037,0.0006798989073523598,0.036612013853433684,0.9776790875059977,0.9984602702902475,0.0006711443042504479
0.038,0.0007169996385396606,0.03758920997511971,0.9769575756379347,0.9983759397857438,0.0007075025302401517
0.039,0.0007550772051829023,0.03856568177863844,0.9762302707934443,0.9982893629357967,0.0007447961886971762
0.04,0.0007941308800681536,0.039541423474737464,0.9754971789723059,0.9982005399352042,0.0007830233729136151
0.041,0.0008341599301952299,0.04051642928017599,0.9747583061994989,0.9981094709838179,0.0008221821663860378
0.042,0.0008751636167837174,0.041490693417750045,0.9740136585251643,0.9980161562865429,0.0008622706428551473
0.043000000000000003,0.0009171411952790227,0.0424642101163176,0.9732632420245686,0.9979205960533374,0.0009032868663455406
0.044,0.0009600919153584473,0.043436973610823666,0.9725070627980656,0.9978227904992117,0.0009452288912055691
0.045,0.001004015020937287,0.044408978142325375,0.9717451269710594,0.9977227398442284,0.000988094762147302
0.046,0.001048909750174957,0.04538021795801701,0.9709774406939665,0.9976204443135014,0.0010318825142865893
0.047,0.001094775335481141,0.046350687311255,0.9702040101421789,0.9975159041371955,0.0010765901731832235
0.048,0.0011416110035219658,0.04732038046158284,0.9694248415160258,0.9974091195505261,0.0011222157548812003
0.049,0.0011894159752262015,0.04828929167475603,0.9686399410407359,0.9973000907937586,0.0011687572659490775
0.05,0.0012381894657914852,0.04925741522276696,0.9678493149663997,0.9971888181122075,0.001216212703520431
0.051000000000000004,0.001287930684690571,0.050224745383869764,0.9670529695679311,0.9970753017562363,0.0012645800553344087
0.052000000000000005,0.0013386388356776036,0.05119127644260505,0.96625091114503,0.9969595419812568,0.001313857299776374
0.053,0.0013903131167944172,0.05215700268982475,0.965443146022144,0.9968415390477284,0.0013640424059186541
0.054,0.00144295272037686,0.05312191842271678,0.9646296805484289,0.9967212932211577,0.0014151333335613743
0.055,0.001496556833061141,0.054086017944829784,0.9638105210977127,0.9965988047720977,0.0014671280332733889
0.056,0.0015511246357902044,0.05504929556609773,0.9629856740684549,0.9964740739761475,0.0015200244464333042
0.057,0.001606655303820127,0.05601174560286456,0.9621551458837093,0.9963471011139512,0.0015738205052705954
0.058,0.0016631480067265403,0.056973362377908725,0.961318942991085,0.9962178864711978,0.0016285141329068096
0.059000000000000004,0.0017206019084110766,0.05793414022046775,0.9604770718627075,0.99608643033862,0.0016841032433968653
0.06,0.0017790161671078417,0.058894073466262714,0.9596295389951803,0.9959527330119943,0.001740585741770437
0.061,0.0018383899353899096,0.059853156457522705,0.9587763509095458,0.9958167947921394,0.0017979595240734318
0.062,0.0018987223601758432,0.06081138354300924,0.957917514151246,0.9956786159849162,0.001856222477409551
0.063,0.0019600125827362387,0.061768749078040634,0.9570530352900847,0.9955381969012274,0.0019153724799819416
0.064,0.002022259738700295,0.06272524742451635,0.956182920920186,0.9953955378570153,0.001975407401134934
0.065,0.0020854629580624065,0.06368087295094131,0.9553071776599578,0.9952506391732631,0.0020363251013958655
0.066,0.0021496213651887807,0.0646356200324501,0.9544258121520504,0.9951035011759926,0.0020981234325169844
0.067,0.0022147340788240804,0.06558948305083126,0.953538831063318,0.9949541241962642,0.0021608002375174498
0.068,0.0022808002120980895,0.06654245639455143,0.9526462410847791,0.994802508570176,0.002224353350725403
0.069,0.0023478188725324033,0.06749453445877948,0.9517480489315769,0.9946486546388634,0.002288780597820124
0.07,0.0024157891620471424,0.06844571164541062,0.9508442613429392,0.9944925627484974,0.002354079795874278
0.07100000000000001,0.002484710176967692,0.06939598236309048,0.9499348850821393,0.9943342332502848,0.0024202487533962363
0.07200000000000001,0.002554581008031463,0.07034534102723915,0.9490199269364555,0.9941736665004669,0.002487285270372478
0.073,0.0026254007403946795,0.07129378206007507,0.9480993937171317,0.9940108628603187,0.002555187138310071
0.074,0.002697168453639189,0.07224129989063909,0.9471732922593371,0.9938458226961485,0.0026239521402792385
0.075,0.002769883221779296,0.07318788895481827,0.9462416294221256,0.9936785463792964,0.002693578050955994
0.076,0.002843544113268622,0.07413354369536986,0.945304412088397,0.9935090342861344,0.002764062636664865
0.077,0.0029181501910069845,0.07507825856194497,0.9443616471648548,0.9933372867980641,0.00283540365542168
0.078,0.002993700512347306,0.07602202801111248,0.9434133415819677,0.9931633043015177,0.0029075988569764425
0.079,0.0030701941291025416,0.07696484650638273,0.9424595022939276,0.9929870871879556,0.0029806459828562782
0.08,0.0031476300875526338,0.07790670851823121,0.9415001362786097,0.9928086358538663,0.003054542766408453
0.081,0.0032260074284514873,0.07884760852412225,0.9405352505375323,0.992627950700765,0.003129286932843466
0.082,0.003305325187033972,0.0797875410085326,0.9395648520958153,0.9924450321351935,0.0032048761992782174
0.083,0.003385582393022946,0.08072650046297505,0.9385889480021398,0.9922598805687185,0.0032813082747792494
0.084,0.0034667780706363035,0.08166448138602198,0.9376075453287067,0.9920724964179307,0.0033585808604060545
0.085,0.0035489112385940465,0.08260147828332877,0.9366206511711966,0.9918828801044445,0.0034366916492544553
0.08600000000000001,0.0036319809101253795,0.08353748566765734,0.9356282726487285,0.9916910320548965,0.003515638326500058
0.08700000000000001,0.0037159860929758272,0.08447249805889953,0.9346304169038177,0.9914969527009447,0.0035954185694417723
0.088,0.0038009257894143765,0.0854065099841005,0.9336270911023355,0.9913006424792677,0.0036760300475453997
0.089,0.0038867989962406415,0.08633951597748202,0.9326183024334681,0.9911021018315633,0.003757470422487291
0.09,0.003973604704792052,0.0872715105804658,0.9316040581096743,0.9909013312045479,0.003839737348198068
0.091,0.004061341900951066,0.0882024883416967,0.9305843653666445,0.9906983310499554,0.003922828470906412
0.092,0.0041500095651524,0.08913244381706598,0.929559231463259,0.9904931018245359,0.004006741429182924
0.093,0.0042396066723902935,0.09006137156973444,0.9285286636815472,0.9902856439900551,0.004091473853984039
0.094,0.004330132192225786,0.09098926617015558,0.9274926693266441,0.9900759580132933,0.00417702336869601
0.095,0.004421585088794021,0.09191612219609861,0.9264512557267497,0.9898640443660435,0.004263387589178958
0.096,0.004513964320811577,0.09284193423267156,0.9254044302330877,0.9896499035251115,0.004350564123810977
0.097,0.004607268841583811,0.09376669687234426,0.9243522002198618,0.9894335359723141,0.004438550573532306
0.098,0.00470149759901224,0.09469040471497127,0.9232945730842147,0.9892149421944781,0.004527344531889563
0.099,0.004796649535601932,0.09561305236781484,0.922231556246186,0.9889941226834397,0.004616943585080032
0.1,0.004892723588468925,0.09653463444556773,0.9211631571486698,0.9887710779360422,0.004707345311996017
0.101,0.0049897186893476725,0.09745514557037611,0.9200893832573723,0.9885458084541368,0.004798547284269251
0.10200000000000001,0.0050876337645985046,0.09837458037186227,0.9190102420607692,0.9883183147445792,0.00489054706631536
0.10300000000000001,0.005186467735215117,0.09929293348714742,0.9179257410700637,0.9880885973192304,0.004983342215378396
0.10400000000000001,0.005286219516832082,0.1002101995608744,0.9168358878191437,0.9878566566949545,0.005076930281575409
0.105,0.00538688801973238,0.10112637324523027,0.9157406898645392,0.9876224933936179,0.005171308807941085
0.106,0.0054884721488549565,0.10204144919996899,0.9146401547853796,0.9873861079420876,0.00526647533047244
0.107,0.005590970803802299,0.10295542209243401,0.9135342901833508,0.9871475008722311,0.005362427378173564
0.108,0.005694382878848038,0.10386828659758074,0.9124231036826521,0.986906672720914,0.005459162473100421
0.109,0.0057987072629445725,0.10478003739799908,0.9113066029299546,0.9866636240299999,0.005556678130405696
0.11,0.005903942839730711,0.10569066918393587,0.9101847955943556,0.9864183553463477,0.0056549718583837
0.111,0.006010088487539344,0.10660017665331727,0.9090576893673381,0.9861708672218122,0.00575404115851533
0.112,0.006117143079405134,0.10750855451177113,0.9079252919627261,0.9859211602132415,0.005853883525513061
0.113,0.0062251054830722245,0.10841579747264933,0.9067876111166419,0.9856692348824763,0.005954496447366011
0.114,0.006333974561001981,0.10932190025704999,0.9056446545874622,0.9854150917963483,0.006055877405385034
0.115,0.006443749170380743,0.1102268575938398,0.9044964301557757,0.9851587315266797,0.006158023874247884
0.116,0.006554428163127607,0.11113066421967607,0.9033429456243383,0.9849001546502806,0.006260933322044397
0.117,0.006666010385902227,0.11203331487902905,0.9021842088180302,0.9846393617489492,0.006364603210321749
0.11800000000000001,0.0067784946801126384,0.11293480432420387,0.9010202275838125,0.984376353409469,0.00646903099412974
0.11900000000000001,0.006891879881923106,0.11383512731536267,0.8998510097906831,0.9841111302236092,0.006574214122066127
0.12,0.007006164822261987,0.11473427862054661,0.8986765633296326,0.9838436927881214,0.006680150036322012
0.121,0.007121348326829628,0.11563225301569781,0.897496896113601,0.9835740417047399,0.006786836172727255
0.122,0.007237429216106271,0.1165290452846813,0.8963120160774333,0.9833021775801796,0.00689426996079595
0.123,0.007354406305359989,0.11742465021930693,0.8951219311778355,0.9830281010261345,0.007002448823771926
0.124,0.007472278404654644,0.11831906261935111,0.893926649393331,0.9827518126592768,0.007111370178674301
0.125,0.00759104431885786,0.11921227729257872,0.8927261787242156,0.9824733131012553,0.007221031436343069
0.126,0.007710702847649029,0.12010428905476474,0.8915205271925134,0.9821926029786937,0.007331430001484726
0.127,0.007831252785527324,0.12099509272971606,0.890309702841933,0.9819096829231898,0.007442563272717953
0.128,0.007952692921819748,0.12188468314929309,0.8890937137378224,0.9816245535713135,0.007554428642619309
0.129,0.008075022040689196,0.12277305515343134,0.8878725679671253,0.981337215564606,0.00766702349776898
0.13,0.00819823892114254,0.12366020359016307,0.886646273638335,0.9810476695495772,0.007780345218796562
0.131,0.008322342337038739,0.12454612331563876,0.885414838881452,0.980755916177706,0.007894391180426884
0.132,0.008447331057096963,0.1254308091941486,0.8841782718479368,0.9804619561054371,0.008009158751525844
0.133,0.008573203844904752,0.1263142560981439,0.8829365807106673,0.9801657899941806,0.00812464529514632
0.134,0.008699959458926178,0.12719645890825856,0.881689773663892,0.97986741851031,0.008240848168574073
0.135,0.008827596652510048,0.12807741251333038,0.8804378589231867,0.9795668423251612,0.008357764723373712
0.136,0.008956114173898107,0.12895711181042233,0.8791808447254083,0.9792640621150305,0.00847539230543468
0.137,0.009085510766233287,0.12983555170484376,0.8779187393286503,0.9789590785611731,0.00859372825501726
0.138,0.009215785167567951,0.13071272711017176,0.8766515510121973,0.978651892349802,0.008712769906798647
0.139,0.009346936110872185,0.13158863294827222,0.8753792880764802,0.9783425041720859,0.008832514589919009
0.14,0.009478962324042084,0.13246326414932097,0.8741019588430302,0.9780309147241483,0.008952959628027609
0.14100000000000001,0.009611862529908081,0.13333661565182484,0.8728195716544339,0.9777171247070651,0.009074102339328932
0.14200000000000002,0.009745635446243288,0.13420868240264275,0.8715321348742877,0.9774011348268636,0.009195940036628863
0.14300000000000002,0.00988027978577185,0.1350794593570066,0.8702396568871523,0.9770829457945213,0.009318470027380862
0.14400000000000002,0.010015794256177345,0.13594894147854233,0.8689421460985072,0.9767625583259631,0.009441689613732214
0.145,0.010152177560111168,0.1368171237392907,0.8676396109347044,0.9764399731420608,0.00956559609257024
0.146,0.010289428395200974,0.13768400111972814,0.8663320598429235,0.9761151909686308,0.009690186755568587
0.147,0.010427545454059117,0.1385495686087877,0.8650195012911254,0.9757882125364329,0.009815458889233523
0.148,0.010566527424291112,0.1394138212038796,0.8637019437680061,0.9754590385811684,0.009941409774950246
0.149,0.010706372988504133,0.1402767539109121,0.862379395782952,0.9751276698434788,0.010068036689029239
0.15,0.010847080824315512,0.1411383617443121,0.8610518658659917,0.9747941070689433,0.010195336902752618
0.151,0.010988649604361274,0.14199863972704574,0.859719362567752,0.9744583510080781,0.010323307682420525
0.152,0.011131077996304684,0.142857582890639,0.8583818944594109,0.9741204024163344,0.01045194628939753
0.153,0.011274364662844816,0.14371518627519822,0.8570394701326509,0.9737802620540961,0.01058124998015907
0.154,0.011418508261725146,0.1445714449294306,0.855692098199613,0.9734379306866789,0.010711216006337863
0.155,0.011563507445742164,0.14542635391066455,0.8543397872928508,0.9730934090843285,0.0108418416147704
0.156,0.011709360862754002,0.14627990828487022,0.8529825460652833,0.9727466980222181,0.010973124047543413
0.157,0.011856067155689086,0.14713210312667968,0.8516203831901489,0.9723977982804476,0.011105060542040373
0.158,0.012003624962554813,0.14798293351940733,0.8502533073609585,0.9720467106440411,0.011237648330988004
0.159,0.012152032916446237,0.1488323945550701,0.8488813272914486,0.9716934359029458,0.011370884642502818
0.16,0.012301289645554787,0.1496804813344077,0.8475044517155353,0.9713379748520296,0.011504766700137652
0.161,0.012451393773176996,0.15052718896690265,0.8461226893872673,0.9709803282910798,0.01163929172292823
0.162,0.012602343917723257,0.15137251257080048,0.844736049080778,0.970620497024801,0.011774456925439726
0.163,0.012754138692726591,0.15221644727312986,0.8433445395902395,0.9702584818628133,0.011910259517813371
0.164,0.012906776706851449,0.15305898820972244,0.8419481697298162,0.9698942836196508,0.012046696705813023
0.165,0.013060256563902514,0.15390013052523294,0.8405469483336163,0.9695279031147593,0.012183765690871786
0.166,0.013214576862833545,0.154739869373159,0.839140884255645,0.9691593411724948,0.012321463670138626
0.167,0.013369736197756221,0.1555781999158612,0.8377299863697586,0.9687885986221216,0.012459787836525021
0.168,0.013525733157949018,0.15641511732458258,0.8363142635696151,0.9684156762978101,0.012598735378751549
0.169,0.013682566327866102,0.15725061677946875,0.834893724768629,0.9680405750386356,0.01273830348139458
0.17,0.01384023428714624,0.15808469346958742,0.8334683788999219,0.9676632956885756,0.012878489324932903
0.171,0.01399873561062173,0.15891734259294815,0.8320382349162766,0.9672838390965085,0.013019290085794404
0.17200000000000001,0.014158068868327357,0.15974855935652196,0.8306033017900886,0.9669022061162115,0.013160702936402712
0.17300000000000001,0.014318232625509362,0.16057833897626095,0.8291635885133192,0.9665183976063587,0.013302725045223883
0.17400000000000002,0.014479225442634431,0.16140667667711778,0.8277191040974468,0.966132414430519,0.013445353576813084
0.17500000000000002,0.01464104587539871,0.1622335676930652,0.8262698575734203,0.9657442574571544,0.013588585691861246
0.176,0.01480369247473683,0.16305900726711553,0.8248158579916108,0.965353927559618,0.013732418547241776
0.177,0.014967163786830958,0.16388299065133996,0.8233571144217634,0.9649614256161518,0.013876849296057238
0.178,0.01513145835311987,0.16470551310688802,0.8218936359529498,0.9645667525098851,0.014021875087686033
0.179,0.015296574710308031,0.16552656990400677,0.8204254316935201,0.9641699091288323,0.014167493067829091
0.18,0.015462511390374706,0.1663461563220601,0.8189525107710544,0.9637708963658905,0.014313700378556563
0.181,0.015629266920583088,0.16716426764954792,0.8174748823323154,0.9633697151188386,0.014460494158354513
0.182,0.015796839823489443,0.1679808991841254,0.8159925555431994,0.962966366290334,0.014607871542171615
0.183,0.015965228616952272,0.1687960462326219,0.8145055395886887,0.9625608507879115,0.014755829661465818
0.184,0.016134431814141495,0.16960970411106022,0.8130138436728029,0.9621531695239809,0.014904365644251062
