# Time(s), Position(m)
0, 1, 0
0.01, 0.999, -0.1
0.02, 0.997502, -0.1498
0.03, 0.995757, -0.1745
0.04, 0.99389, -0.186651
0.05, 0.991965, -0.192528
0.06, 0.990013, -0.195268
0.07, 0.988048, -0.19644
0.08, 0.98608, -0.196828
0.09, 0.984112, -0.196825
0.1, 0.982145, -0.196627
0.11, 0.980182, -0.196331
0.12, 0.978222, -0.195988
0.13, 0.976266, -0.19562
0.14, 0.974314, -0.195241
0.15, 0.972365, -0.194857
0.16, 0.97042, -0.19447
0.17, 0.968479, -0.194083
0.18, 0.966542, -0.193695
0.19, 0.964609, -0.193308
0.2, 0.96268, -0.192922
0.21, 0.960755, -0.192536
0.22, 0.958833, -0.192151
0.23, 0.956916, -0.191767
0.24, 0.955002, -0.191383
0.25, 0.953092, -0.191
0.26, 0.951186, -0.190618
0.27, 0.949283, -0.190237
0.28, 0.947385, -0.189857
0.29, 0.94549, -0.189477
0.3, 0.943599, -0.189098
0.31, 0.941712, -0.18872
0.32, 0.939828, -0.188342
0.33, 0.937949, -0.187966
0.34, 0.936073, -0.18759
0.35, 0.934201, -0.187215
0.36, 0.932332, -0.18684
0.37, 0.930468, -0.186466
0.38, 0.928607, -0.186094
0.39, 0.926749, -0.185721
0.4, 0.924896, -0.18535
0.41, 0.923046, -0.184979
0.42, 0.9212, -0.184609
0.43, 0.919358, -0.18424
0.44, 0.917519, -0.183872
0.45, 0.915684, -0.183504
0.46, 0.913852, -0.183137
0.47, 0.912025, -0.18277
0.48, 0.910201, -0.182405
0.49, 0.90838, -0.18204
0.5, 0.906564, -0.181676
0.51, 0.90475, -0.181313
0.52, 0.902941, -0.18095
0.53, 0.901135, -0.180588
0.54, 0.899333, -0.180227
0.55, 0.897534, -0.179867
0.56, 0.895739, -0.179507
0.57, 0.893948, -0.179148
0.58, 0.89216, -0.17879
0.59, 0.890375, -0.178432
0.6, 0.888595, -0.178075
0.61, 0.886817, -0.177719
0.62, 0.885044, -0.177363
0.63, 0.883274, -0.177009
0.64, 0.881507, -0.176655
0.65, 0.879744, -0.176301
0.66, 0.877985, -0.175949
0.67, 0.876229, -0.175597
0.68, 0.874476, -0.175246
0.69, 0.872727, -0.174895
0.7, 0.870982, -0.174545
0.71, 0.86924, -0.174196
0.72, 0.867501, -0.173848
0.73, 0.865766, -0.1735
0.74, 0.864035, -0.173153
0.75, 0.862307, -0.172807
0.76, 0.860582, -0.172461
0.77, 0.858861, -0.172116
0.78, 0.857143, -0.171772
0.79, 0.855429, -0.171429
0.8, 0.853718, -0.171086
0.81, 0.852011, -0.170744
0.82, 0.850307, -0.170402
0.83, 0.848606, -0.170061
0.84, 0.846909, -0.169721
0.85, 0.845215, -0.169382
0.86, 0.843525, -0.169043
0.87, 0.841838, -0.168705
0.88, 0.840154, -0.168368
0.89, 0.838474, -0.168031
0.9, 0.836797, -0.167695
0.91, 0.835123, -0.167359
0.92, 0.833453, -0.167025
0.93, 0.831786, -0.166691
0.94, 0.830122, -0.166357
0.95, 0.828462, -0.166024
0.96, 0.826805, -0.165692
0.97, 0.825152, -0.165361
0.98, 0.823501, -0.16503
0.99, 0.821854, -0.1647
1, 0.820211, -0.164371
1.01, 0.81857, -0.164042
1.02, 0.816933, -0.163714
1.03, 0.815299, -0.163387
1.04, 0.813668, -0.16306
1.05, 0.812041, -0.162734
1.06, 0.810417, -0.162408
1.07, 0.808796, -0.162083
1.08, 0.807179, -0.161759
1.09, 0.805564, -0.161436
1.1, 0.803953, -0.161113
1.11, 0.802345, -0.160791
1.12, 0.800741, -0.160469
1.13, 0.799139, -0.160148
1.14, 0.797541, -0.159828
1.15, 0.795946, -0.159508
1.16, 0.794354, -0.159189
1.17, 0.792765, -0.158871
1.18, 0.79118, -0.158553
1.19, 0.789597, -0.158236
1.2, 0.788018, -0.157919
1.21, 0.786442, -0.157604
1.22, 0.784869, -0.157288
1.23, 0.783299, -0.156974
1.24, 0.781733, -0.15666
1.25, 0.780169, -0.156347
1.26, 0.778609, -0.156034
1.27, 0.777052, -0.155722
1.28, 0.775498, -0.15541
1.29, 0.773947, -0.1551
1.3, 0.772399, -0.154789
1.31, 0.770854, -0.15448
1.32, 0.769312, -0.154171
1.33, 0.767774, -0.153862
1.34, 0.766238, -0.153555
1.35, 0.764706, -0.153248
1.36, 0.763176, -0.152941
1.37, 0.76165, -0.152635
1.38, 0.760127, -0.15233
1.39, 0.758606, -0.152025
1.4, 0.757089, -0.151721
1.41, 0.755575, -0.151418
1.42, 0.754064, -0.151115
1.43, 0.752556, -0.150813
1.44, 0.751051, -0.150511
1.45, 0.749548, -0.15021
1.46, 0.748049, -0.14991
1.47, 0.746553, -0.14961
1.48, 0.74506, -0.149311
1.49, 0.74357, -0.149012
1.5, 0.742083, -0.148714
1.51, 0.740599, -0.148417
1.52, 0.739117, -0.14812
1.53, 0.737639, -0.147823
1.54, 0.736164, -0.147528
1.55, 0.734692, -0.147233
1.56, 0.733222, -0.146938
1.57, 0.731756, -0.146644
1.58, 0.730292, -0.146351
1.59, 0.728832, -0.146058
1.6, 0.727374, -0.145766
1.61, 0.725919, -0.145475
1.62, 0.724467, -0.145184
1.63, 0.723019, -0.144893
1.64, 0.721573, -0.144604
1.65, 0.720129, -0.144315
1.66, 0.718689, -0.144026
1.67, 0.717252, -0.143738
1.68, 0.715817, -0.14345
1.69, 0.714386, -0.143163
1.7, 0.712957, -0.142877
1.71, 0.711531, -0.142591
1.72, 0.710108, -0.142306
1.73, 0.708688, -0.142022
1.74, 0.70727, -0.141738
1.75, 0.705856, -0.141454
1.76, 0.704444, -0.141171
1.77, 0.703035, -0.140889
1.78, 0.701629, -0.140607
1.79, 0.700226, -0.140326
1.8, 0.698825, -0.140045
1.81, 0.697428, -0.139765
1.82, 0.696033, -0.139486
1.83, 0.694641, -0.139207
1.84, 0.693251, -0.138928
1.85, 0.691865, -0.13865
1.86, 0.690481, -0.138373
1.87, 0.6891, -0.138096
1.88, 0.687722, -0.13782
1.89, 0.686347, -0.137544
1.9, 0.684974, -0.137269
1.91, 0.683604, -0.136995
1.92, 0.682237, -0.136721
1.93, 0.680872, -0.136447
1.94, 0.679511, -0.136174
1.95, 0.678152, -0.135902
1.96, 0.676795, -0.13563
1.97, 0.675442, -0.135359
1.98, 0.674091, -0.135088
1.99, 0.672743, -0.134818
2, 0.671397, -0.134549
2.01, 0.670054, -0.134279
2.02, 0.668714, -0.134011
2.03, 0.667377, -0.133743
2.04, 0.666042, -0.133475
2.05, 0.66471, -0.133208
2.06, 0.663381, -0.132942
2.07, 0.662054, -0.132676
2.08, 0.66073, -0.132411
2.09, 0.659408, -0.132146
2.1, 0.658089, -0.131882
2.11, 0.656773, -0.131618
2.12, 0.65546, -0.131355
2.13, 0.654149, -0.131092
2.14, 0.65284, -0.13083
2.15, 0.651535, -0.130568
2.16, 0.650232, -0.130307
2.17, 0.648931, -0.130046
2.18, 0.647633, -0.129786
2.19, 0.646338, -0.129527
2.2, 0.645045, -0.129268
2.21, 0.643755, -0.129009
2.22, 0.642468, -0.128751
2.23, 0.641183, -0.128494
2.24, 0.639901, -0.128237
2.25, 0.638621, -0.12798
2.26, 0.637343, -0.127724
2.27, 0.636069, -0.127469
2.28, 0.634797, -0.127214
2.29, 0.633527, -0.126959
2.3, 0.63226, -0.126705
2.31, 0.630995, -0.126452
2.32, 0.629733, -0.126199
2.33, 0.628474, -0.125947
2.34, 0.627217, -0.125695
2.35, 0.625963, -0.125443
2.36, 0.624711, -0.125193
2.37, 0.623461, -0.124942
2.38, 0.622214, -0.124692
2.39, 0.62097, -0.124443
2.4, 0.619728, -0.124194
2.41, 0.618489, -0.123946
2.42, 0.617252, -0.123698
2.43, 0.616017, -0.12345
2.44, 0.614785, -0.123203
2.45, 0.613555, -0.122957
2.46, 0.612328, -0.122711
2.47, 0.611104, -0.122466
2.48, 0.609881, -0.122221
2.49, 0.608662, -0.121976
2.5, 0.607444, -0.121732
2.51, 0.60623, -0.121489
2.52, 0.605017, -0.121246
2.53, 0.603807, -0.121003
2.54, 0.602599, -0.120761
2.55, 0.601394, -0.12052
2.56, 0.600191, -0.120279
2.57, 0.598991, -0.120038
2.58, 0.597793, -0.119798
2.59, 0.596597, -0.119559
2.6, 0.595404, -0.119319
2.61, 0.594213, -0.119081
2.62, 0.593025, -0.118843
2.63, 0.591839, -0.118605
2.64, 0.590655, -0.118368
2.65, 0.589474, -0.118131
2.66, 0.588295, -0.117895
2.67, 0.587118, -0.117659
2.68, 0.585944, -0.117424
2.69, 0.584772, -0.117189
2.7, 0.583603, -0.116954
2.71, 0.582436, -0.116721
2.72, 0.581271, -0.116487
2.73, 0.580108, -0.116254
2.74, 0.578948, -0.116022
2.75, 0.57779, -0.11579
2.76, 0.576634, -0.115558
2.77, 0.575481, -0.115327
2.78, 0.57433, -0.115096
2.79, 0.573182, -0.114866
2.8, 0.572035, -0.114636
2.81, 0.570891, -0.114407
2.82, 0.569749, -0.114178
2.83, 0.56861, -0.11395
2.84, 0.567473, -0.113722
2.85, 0.566338, -0.113495
2.86, 0.565205, -0.113268
2.87, 0.564075, -0.113041
2.88, 0.562946, -0.112815
2.89, 0.561821, -0.112589
2.9, 0.560697, -0.112364
2.91, 0.559576, -0.112139
2.92, 0.558456, -0.111915
2.93, 0.557339, -0.111691
2.94, 0.556225, -0.111468
2.95, 0.555112, -0.111245
2.96, 0.554002, -0.111022
2.97, 0.552894, -0.1108
2.98, 0.551788, -0.110579
2.99, 0.550685, -0.110358
3, 0.549583, -0.110137
3.01, 0.548484, -0.109917
3.02, 0.547387, -0.109697
3.03, 0.546292, -0.109477
3.04, 0.5452, -0.109258
3.05, 0.544109, -0.10904
3.06, 0.543021, -0.108822
3.07, 0.541935, -0.108604
3.08, 0.540851, -0.108387
3.09, 0.53977, -0.10817
3.1, 0.53869, -0.107954
3.11, 0.537613, -0.107738
3.12, 0.536538, -0.107523
3.13, 0.535464, -0.107308
3.14, 0.534394, -0.107093
3.15, 0.533325, -0.106879
3.16, 0.532258, -0.106665
3.17, 0.531194, -0.106452
3.18, 0.530131, -0.106239
3.19, 0.529071, -0.106026
3.2, 0.528013, -0.105814
3.21, 0.526957, -0.105603
3.22, 0.525903, -0.105391
3.23, 0.524851, -0.105181
3.24, 0.523801, -0.10497
3.25, 0.522754, -0.10476
3.26, 0.521708, -0.104551
3.27, 0.520665, -0.104342
3.28, 0.519623, -0.104133
3.29, 0.518584, -0.103925
3.3, 0.517547, -0.103717
3.31, 0.516512, -0.103509
3.32, 0.515479, -0.103302
3.33, 0.514448, -0.103096
3.34, 0.513419, -0.10289
3.35, 0.512392, -0.102684
3.36, 0.511367, -0.102478
3.37, 0.510345, -0.102273
3.38, 0.509324, -0.102069
3.39, 0.508305, -0.101865
3.4, 0.507289, -0.101661
3.41, 0.506274, -0.101458
3.42, 0.505262, -0.101255
3.43, 0.504251, -0.101052
3.44, 0.503243, -0.10085
3.45, 0.502236, -0.100649
3.46, 0.501232, -0.100447
3.47, 0.500229, -0.100246
3.48, 0.499229, -0.100046
3.49, 0.49823, -0.0998457
3.5, 0.497234, -0.0996461
3.51, 0.496239, -0.0994468
3.52, 0.495247, -0.0992479
3.53, 0.494256, -0.0990494
3.54, 0.493268, -0.0988513
3.55, 0.492281, -0.0986536
3.56, 0.491297, -0.0984563
3.57, 0.490314, -0.0982594
3.58, 0.489334, -0.0980628
3.59, 0.488355, -0.0978667
3.6, 0.487378, -0.097671
3.61, 0.486403, -0.0974756
3.62, 0.485431, -0.0972807
3.63, 0.48446, -0.0970861
3.64, 0.483491, -0.0968919
3.65, 0.482524, -0.0966982
3.66, 0.481559, -0.0965048
3.67, 0.480596, -0.0963118
3.68, 0.479634, -0.0961191
3.69, 0.478675, -0.0959269
3.7, 0.477718, -0.095735
3.71, 0.476762, -0.0955436
3.72, 0.475809, -0.0953525
3.73, 0.474857, -0.0951618
3.74, 0.473908, -0.0949715
3.75, 0.47296, -0.0947815
3.76, 0.472014, -0.094592
3.77, 0.47107, -0.0944028
3.78, 0.470128, -0.094214
3.79, 0.469187, -0.0940255
3.8, 0.468249, -0.0938375
3.81, 0.467313, -0.0936498
3.82, 0.466378, -0.0934625
3.83, 0.465445, -0.0932756
3.84, 0.464514, -0.093089
3.85, 0.463585, -0.0929029
3.86, 0.462658, -0.092717
3.87, 0.461733, -0.0925316
3.88, 0.460809, -0.0923466
3.89, 0.459888, -0.0921619
3.9, 0.458968, -0.0919775
3.91, 0.45805, -0.0917936
3.92, 0.457134, -0.09161
3.93, 0.45622, -0.0914268
3.94, 0.455307, -0.0912439
3.95, 0.454397, -0.0910614
3.96, 0.453488, -0.0908793
3.97, 0.452581, -0.0906975
3.98, 0.451676, -0.0905162
3.99, 0.450772, -0.0903351
4, 0.449871, -0.0901545
4.01, 0.448971, -0.0899741
4.02, 0.448073, -0.0897942
4.03, 0.447177, -0.0896146
4.04, 0.446283, -0.0894354
4.05, 0.44539, -0.0892565
4.06, 0.444499, -0.089078
4.07, 0.44361, -0.0888998
4.08, 0.442723, -0.088722
4.09, 0.441838, -0.0885446
4.1, 0.440954, -0.0883675
4.11, 0.440072, -0.0881908
4.12, 0.439192, -0.0880144
4.13, 0.438313, -0.0878384
4.14, 0.437437, -0.0876627
4.15, 0.436562, -0.0874874
4.16, 0.435689, -0.0873124
4.17, 0.434817, -0.0871378
4.18, 0.433948, -0.0869635
4.19, 0.43308, -0.0867896
4.2, 0.432214, -0.086616
4.21, 0.431349, -0.0864427
4.22, 0.430487, -0.0862699
4.23, 0.429626, -0.0860973
4.24, 0.428766, -0.0859251
4.25, 0.427909, -0.0857533
4.26, 0.427053, -0.0855818
4.27, 0.426199, -0.0854106
4.28, 0.425347, -0.0852398
4.29, 0.424496, -0.0850693
4.3, 0.423647, -0.0848992
4.31, 0.4228, -0.0847294
4.32, 0.421954, -0.0845599
4.33, 0.42111, -0.0843908
4.34, 0.420268, -0.084222
4.35, 0.419427, -0.0840536
4.36, 0.418588, -0.0838855
4.37, 0.417751, -0.0837177
4.38, 0.416916, -0.0835502
4.39, 0.416082, -0.0833831
4.4, 0.41525, -0.0832164
4.41, 0.414419, -0.0830499
4.42, 0.41359, -0.0828838
4.43, 0.412763, -0.0827181
4.44, 0.411938, -0.0825526
4.45, 0.411114, -0.0823875
4.46, 0.410292, -0.0822228
4.47, 0.409471, -0.0820583
4.48, 0.408652, -0.0818942
4.49, 0.407835, -0.0817304
4.5, 0.407019, -0.081567
4.51, 0.406205, -0.0814038
4.52, 0.405393, -0.081241
4.53, 0.404582, -0.0810785
4.54, 0.403773, -0.0809164
4.55, 0.402965, -0.0807545
4.56, 0.402159, -0.080593
4.57, 0.401355, -0.0804318
4.58, 0.400552, -0.080271
4.59, 0.399751, -0.0801104
4.6, 0.398952, -0.0799502
4.61, 0.398154, -0.0797903
4.62, 0.397357, -0.0796307
4.63, 0.396563, -0.0794715
4.64, 0.39577, -0.0793125
4.65, 0.394978, -0.0791539
4.66, 0.394188, -0.0789956
4.67, 0.3934, -0.0788376
4.68, 0.392613, -0.0786799
4.69, 0.391828, -0.0785226
4.7, 0.391044, -0.0783655
4.71, 0.390262, -0.0782088
4.72, 0.389481, -0.0780524
4.73, 0.388702, -0.0778963
4.74, 0.387925, -0.0777405
4.75, 0.387149, -0.077585
4.76, 0.386375, -0.0774298
4.77, 0.385602, -0.077275
4.78, 0.384831, -0.0771204
4.79, 0.384061, -0.0769662
4.8, 0.383293, -0.0768122
4.81, 0.382527, -0.0766586
4.82, 0.381761, -0.0765053
4.83, 0.380998, -0.0763523
4.84, 0.380236, -0.0761996
4.85, 0.379475, -0.0760472
4.86, 0.378717, -0.0758951
4.87, 0.377959, -0.0757433
4.88, 0.377203, -0.0755918
4.89, 0.376449, -0.0754406
4.9, 0.375696, -0.0752898
4.91, 0.374944, -0.0751392
4.92, 0.374195, -0.0749889
4.93, 0.373446, -0.0748389
4.94, 0.372699, -0.0746892
4.95, 0.371954, -0.0745399
4.96, 0.37121, -0.0743908
4.97, 0.370468, -0.074242
4.98, 0.369727, -0.0740935
4.99, 0.368987, -0.0739453
5, 0.368249, -0.0737974
5.01, 0.367513, -0.0736498
5.02, 0.366778, -0.0735025
5.03, 0.366044, -0.0733555
5.04, 0.365312, -0.0732088
5.05, 0.364581, -0.0730624
5.06, 0.363852, -0.0729163
5.07, 0.363125, -0.0727705
5.08, 0.362398, -0.0726249
5.09, 0.361674, -0.0724797
5.1, 0.36095, -0.0723347
5.11, 0.360228, -0.07219
5.12, 0.359508, -0.0720457
5.13, 0.358789, -0.0719016
5.14, 0.358071, -0.0717578
5.15, 0.357355, -0.0716142
5.16, 0.35664, -0.071471
5.17, 0.355927, -0.0713281
5.18, 0.355215, -0.0711854
5.19, 0.354505, -0.071043
5.2, 0.353796, -0.070901
5.21, 0.353088, -0.0707592
5.22, 0.352382, -0.0706176
5.23, 0.351677, -0.0704764
5.24, 0.350974, -0.0703355
5.25, 0.350272, -0.0701948
5.26, 0.349571, -0.0700544
5.27, 0.348872, -0.0699143
5.28, 0.348175, -0.0697745
5.29, 0.347478, -0.0696349
5.3, 0.346783, -0.0694956
5.31, 0.34609, -0.0693566
5.32, 0.345397, -0.0692179
5.33, 0.344707, -0.0690795
5.34, 0.344017, -0.0689413
5.35, 0.343329, -0.0688035
5.36, 0.342643, -0.0686658
5.37, 0.341957, -0.0685285
5.38, 0.341273, -0.0683915
5.39, 0.340591, -0.0682547
5.4, 0.33991, -0.0681182
5.41, 0.33923, -0.0679819
5.42, 0.338551, -0.067846
5.43, 0.337874, -0.0677103
5.44, 0.337199, -0.0675749
5.45, 0.336524, -0.0674397
5.46, 0.335851, -0.0673048
5.47, 0.335179, -0.0671702
5.48, 0.334509, -0.0670359
5.49, 0.33384, -0.0669018
5.5, 0.333172, -0.066768
5.51, 0.332506, -0.0666345
5.52, 0.331841, -0.0665012
5.53, 0.331177, -0.0663682
5.54, 0.330515, -0.0662355
5.55, 0.329854, -0.066103
5.56, 0.329194, -0.0659708
5.57, 0.328536, -0.0658388
5.58, 0.327879, -0.0657072
5.59, 0.327223, -0.0655757
5.6, 0.326569, -0.0654446
5.61, 0.325915, -0.0653137
5.62, 0.325264, -0.0651831
5.63, 0.324613, -0.0650527
5.64, 0.323964, -0.0649226
5.65, 0.323316, -0.0647928
5.66, 0.322669, -0.0646632
5.67, 0.322024, -0.0645338
5.68, 0.32138, -0.0644048
5.69, 0.320737, -0.064276
5.7, 0.320096, -0.0641474
5.71, 0.319455, -0.0640191
5.72, 0.318817, -0.0638911
5.73, 0.318179, -0.0637633
5.74, 0.317543, -0.0636358
5.75, 0.316907, -0.0635085
5.76, 0.316274, -0.0633815
5.77, 0.315641, -0.0632547
5.78, 0.31501, -0.0631282
5.79, 0.31438, -0.063002
5.8, 0.313751, -0.062876
5.81, 0.313124, -0.0627502
5.82, 0.312497, -0.0626247
5.83, 0.311872, -0.0624995
5.84, 0.311249, -0.0623745
5.85, 0.310626, -0.0622497
5.86, 0.310005, -0.0621252
5.87, 0.309385, -0.062001
5.88, 0.308766, -0.061877
5.89, 0.308148, -0.0617532
5.9, 0.307532, -0.0616297
5.91, 0.306917, -0.0615064
5.92, 0.306303, -0.0613834
5.93, 0.305691, -0.0612607
5.94, 0.305079, -0.0611381
5.95, 0.304469, -0.0610159
5.96, 0.30386, -0.0608938
5.97, 0.303252, -0.060772
5.98, 0.302646, -0.0606505
5.99, 0.302041, -0.0605292
6, 0.301437, -0.0604081
6.01, 0.300834, -0.0602873
6.02, 0.300232, -0.0601667
6.03, 0.299632, -0.0600464
6.04, 0.299032, -0.0599263
6.05, 0.298434, -0.0598065
6.06, 0.297837, -0.0596869
6.07, 0.297242, -0.0595675
6.08, 0.296647, -0.0594483
6.09, 0.296054, -0.0593294
6.1, 0.295462, -0.0592108
6.11, 0.294871, -0.0590924
6.12, 0.294281, -0.0589742
6.13, 0.293693, -0.0588562
6.14, 0.293105, -0.0587385
6.15, 0.292519, -0.058621
6.16, 0.291934, -0.0585038
6.17, 0.29135, -0.0583868
6.18, 0.290767, -0.05827
6.19, 0.290186, -0.0581535
6.2, 0.289605, -0.0580372
6.21, 0.289026, -0.0579211
6.22, 0.288448, -0.0578053
6.23, 0.287871, -0.0576896
6.24, 0.287296, -0.0575743
6.25, 0.286721, -0.0574591
6.26, 0.286148, -0.0573442
6.27, 0.285575, -0.0572295
6.28, 0.285004, -0.0571151
6.29, 0.284434, -0.0570008
6.3, 0.283865, -0.0568868
6.31, 0.283298, -0.056773
6.32, 0.282731, -0.0566595
6.33, 0.282165, -0.0565462
6.34, 0.281601, -0.0564331
6.35, 0.281038, -0.0563202
6.36, 0.280476, -0.0562076
6.37, 0.279915, -0.0560952
6.38, 0.279355, -0.055983
6.39, 0.278796, -0.055871
6.4, 0.278239, -0.0557593
6.41, 0.277682, -0.0556478
6.42, 0.277127, -0.0555365
6.43, 0.276573, -0.0554254
6.44, 0.27602, -0.0553145
6.45, 0.275467, -0.0552039
6.46, 0.274917, -0.0550935
6.47, 0.274367, -0.0549833
6.48, 0.273818, -0.0548733
6.49, 0.27327, -0.0547636
6.5, 0.272724, -0.0546541
6.51, 0.272178, -0.0545448
6.52, 0.271634, -0.0544357
6.53, 0.271091, -0.0543268
6.54, 0.270549, -0.0542181
6.55, 0.270007, -0.0541097
6.56, 0.269467, -0.0540015
6.57, 0.268928, -0.0538935
6.58, 0.268391, -0.0537857
6.59, 0.267854, -0.0536781
6.6, 0.267318, -0.0535708
6.61, 0.266784, -0.0534636
6.62, 0.26625, -0.0533567
6.63, 0.265717, -0.05325
6.64, 0.265186, -0.0531435
6.65, 0.264656, -0.0530372
6.66, 0.264126, -0.0529311
6.67, 0.263598, -0.0528253
6.68, 0.263071, -0.0527196
6.69, 0.262545, -0.0526142
6.7, 0.26202, -0.0525089
6.71, 0.261496, -0.0524039
6.72, 0.260973, -0.0522991
6.73, 0.260451, -0.0521945
6.74, 0.25993, -0.0520901
6.75, 0.25941, -0.051986
6.76, 0.258891, -0.051882
6.77, 0.258373, -0.0517782
6.78, 0.257857, -0.0516747
6.79, 0.257341, -0.0515713
6.8, 0.256826, -0.0514682
6.81, 0.256313, -0.0513652
6.82, 0.2558, -0.0512625
6.83, 0.255288, -0.05116
6.84, 0.254778, -0.0510577
6.85, 0.254268, -0.0509555
6.86, 0.25376, -0.0508536
6.87, 0.253252, -0.0507519
6.88, 0.252746, -0.0506504
6.89, 0.25224, -0.0505491
6.9, 0.251736, -0.050448
6.91, 0.251232, -0.0503471
6.92, 0.25073, -0.0502464
6.93, 0.250228, -0.0501459
6.94, 0.249728, -0.0500456
6.95, 0.249228, -0.0499456
6.96, 0.24873, -0.0498457
6.97, 0.248232, -0.049746
6.98, 0.247736, -0.0496465
6.99, 0.24724, -0.0495472
7, 0.246746, -0.0494481
7.01, 0.246252, -0.0493492
7.02, 0.24576, -0.0492505
7.03, 0.245268, -0.049152
7.04, 0.244778, -0.0490537
7.05, 0.244288, -0.0489556
7.06, 0.2438, -0.0488577
7.07, 0.243312, -0.04876
7.08, 0.242826, -0.0486624
7.09, 0.24234, -0.0485651
7.1, 0.241855, -0.048468
7.11, 0.241372, -0.048371
7.12, 0.240889, -0.0482743
7.13, 0.240407, -0.0481778
7.14, 0.239926, -0.0480814
7.15, 0.239446, -0.0479852
7.16, 0.238967, -0.0478893
7.17, 0.23849, -0.0477935
7.18, 0.238013, -0.0476979
7.19, 0.237537, -0.0476025
7.2, 0.237061, -0.0475073
7.21, 0.236587, -0.0474123
7.22, 0.236114, -0.0473175
7.23, 0.235642, -0.0472228
7.24, 0.235171, -0.0471284
7.25, 0.2347, -0.0470341
7.26, 0.234231, -0.0469401
7.27, 0.233762, -0.0468462
7.28, 0.233295, -0.0467525
7.29, 0.232828, -0.046659
7.3, 0.232363, -0.0465657
7.31, 0.231898, -0.0464725
7.32, 0.231434, -0.0463796
7.33, 0.230971, -0.0462868
7.34, 0.230509, -0.0461943
7.35, 0.230048, -0.0461019
7.36, 0.229588, -0.0460097
7.37, 0.229129, -0.0459176
7.38, 0.228671, -0.0458258
7.39, 0.228213, -0.0457342
7.4, 0.227757, -0.0456427
7.41, 0.227301, -0.0455514
7.42, 0.226847, -0.0454603
7.43, 0.226393, -0.0453694
7.44, 0.22594, -0.0452786
7.45, 0.225489, -0.0451881
7.46, 0.225038, -0.0450977
7.47, 0.224587, -0.0450075
7.48, 0.224138, -0.0449175
7.49, 0.22369, -0.0448277
7.5, 0.223243, -0.044738
7.51, 0.222796, -0.0446485
7.52, 0.222351, -0.0445592
7.53, 0.221906, -0.0444701
7.54, 0.221462, -0.0443812
7.55, 0.221019, -0.0442924
7.56, 0.220577, -0.0442038
7.57, 0.220136, -0.0441154
7.58, 0.219696, -0.0440272
7.59, 0.219256, -0.0439391
7.6, 0.218818, -0.0438513
7.61, 0.21838, -0.0437636
7.62, 0.217943, -0.043676
7.63, 0.217507, -0.0435887
