#Time,Channel A,Channel B(ms),(mV),(V)
0.00000000,-0.18878750,-0.01419111
0.02048000,-0.19331950,-0.01419111
0.04096000,-0.19331950,-0.01419111
0.06144000,-0.19786670,-0.01419111
0.08192000,-0.19786670,-0.01419111
0.10240000,-0.19786670,0.03051851
0.12288000,-0.19331950,0.03051851
0.14336000,-0.19786670,0.03051851
0.16384000,-0.18425550,0.03051851
0.18432000,-0.18425550,0.03051851
0.20480000,-0.17517620,0.07522812
0.22528000,-0.17062900,0.07522812
0.24576000,-0.16156500,0.11993770
0.26624000,-0.15248570,0.16464740
0.28672000,-0.14340650,0.11993770
0.30720000,-0.12979520,0.11993770
0.32768000,-0.12071600,0.16464740
0.34816000,-0.10710470,0.16464740
0.36864000,-0.09802545,0.16464740
0.38912000,-0.07988219,0.16464740
0.40960000,-0.06625568,0.16464740
0.43008000,-0.05264442,0.20935700
0.45056000,-0.03903317,0.20935700
0.47104000,-0.02542192,0.20935700
0.49152000,-0.00726340,0.20935700
0.51200000,0.00633259,0.20935700
0.53248000,0.01994385,0.20935700
0.55296000,0.03355510,0.20935700
0.57344000,0.04716635,0.16464740
0.59392000,0.06532487,0.20935700
0.61440000,0.07893612,0.16464740
0.63488000,0.09254737,0.20935700
0.65536000,0.10162660,0.16464740
0.67584000,0.11523790,0.16464740
0.69632000,0.12884910,0.16464740
0.71680000,0.13792840,0.16464740
0.73728000,0.14700760,0.16464740
0.75776000,0.15608690,0.11993770
0.77824000,0.16516620,0.16464740
0.79872000,0.17423020,0.11993770
0.81920000,0.17423020,0.07522812
0.83967999,0.18330940,0.11993770
0.86015999,0.18330940,0.07522812
0.88063999,0.19238870,0.07522812
0.90111999,0.18785670,0.03051851
0.92159999,0.18785670,0.03051851
0.94207999,0.19238870,0.03051851
0.96255999,0.18785670,0.03051851
0.98303999,0.18330940,-0.01419111
1.00351999,0.17877740,-0.01419111
1.02399999,0.17423020,-0.01419111
1.04447999,0.16969820,-0.05890072
1.06495999,0.15608690,-0.05890072
1.08543999,0.14700760,-0.05890072
1.10591999,0.13792840,-0.10361030
1.12639999,0.12431710,-0.10361030
1.14687999,0.11070590,-0.14847250
1.16735999,0.09709464,-0.14847250
1.18783999,0.08348338,-0.14847250
1.20831999,0.06532487,-0.14847250
1.22879999,0.05171361,-0.19318220
1.24927999,0.03355510,-0.19318220
1.26975999,0.01541185,-0.19318220
1.29023999,-0.00273141,-0.19318220
1.31071999,-0.01634266,-0.19318220
1.33119999,-0.03450117,-0.23789180
1.35167999,-0.05264442,-0.19318220
1.37215999,-0.07080294,-0.19318220
1.39263999,-0.08441419,-0.23789180
1.41311999,-0.10255740,-0.19318220
1.43359999,-0.11618400,-0.19318220
1.45407999,-0.12979520,-0.19318220
1.47455999,-0.14340650,-0.14847250
1.49503999,-0.15248570,-0.14847250
1.51551999,-0.16156500,-0.14847250
1.53599999,-0.17970820,-0.14847250
1.55647999,-0.17970820,-0.10361030
1.57695999,-0.18878750,-0.05890072
1.59743999,-0.19331950,-0.05890072
1.61791999,-0.19786670,-0.01419111
1.63839999,-0.19786670,-0.01419111
1.65887999,-0.19786670,-0.01419111
1.67935999,-0.19786670,0.03051851
1.69983999,-0.19331950,0.03051851
1.72031999,-0.18878750,0.03051851
1.74079999,-0.18425550,0.07522812
1.76127999,-0.17517620,0.07522812
1.78175999,-0.16609700,0.11993770
1.80223999,-0.15248570,0.11993770
1.82271999,-0.14340650,0.16464740
1.84319999,-0.13432720,0.16464740
1.86367999,-0.11618400,0.16464740
1.88415999,-0.10255740,0.16464740
1.90463999,-0.08894619,0.20935700
1.92511999,-0.07533494,0.20935700
1.94559999,-0.05264442,0.20935700
1.96607999,-0.03903317,0.20935700
1.98655999,-0.02087466,0.20935700
2.00703999,-0.00726340,0.20935700
2.02751999,0.01086459,0.20935700
2.04799999,0.02902310,0.20935700
2.06847999,0.04716635,0.20935700
2.08895999,0.06532487,0.20935700
2.10943999,0.08348338,0.20935700
2.12991999,0.10162660,0.20935700
2.15039999,0.11523790,0.20935700
2.17087999,0.12884910,0.20935700
2.19135999,0.14247570,0.20935700
2.21183999,0.15608690,0.20935700
2.23231999,0.16969820,0.16464740
2.25279999,0.17423020,0.16464740
2.27327999,0.18330940,0.16464740
2.29375999,0.18785670,0.16464740
2.31423999,0.18785670,0.11993770
2.33471999,0.19238870,0.07522812
2.35519999,0.18785670,0.03051851
2.37567999,0.18785670,0.03051851
2.39615999,0.17877740,-0.01419111
2.41663999,0.17423020,-0.05890072
2.43711999,0.16061890,-0.05890072
2.45759999,0.15153960,-0.10361030
2.47807998,0.13339640,-0.14847250
2.49855998,0.11978510,-0.19318220
2.51903998,0.10615860,-0.19318220
2.53951998,0.08801537,-0.19318220
2.55999998,0.07440412,-0.23789180
2.58047998,0.05624561,-0.23789180
2.60095998,0.03355510,-0.23789180
2.62143998,0.01086459,-0.23789180
2.64191998,-0.00726340,-0.28260140
2.66239998,-0.02542192,-0.23789180
2.68287998,-0.04811243,-0.23789180
2.70335998,-0.06172368,-0.23789180
2.72383998,-0.08441419,-0.23789180
2.74431998,-0.09802545,-0.19318220
2.76479998,-0.11618400,-0.19318220
2.78527998,-0.13432720,-0.19318220
2.80575998,-0.14793850,-0.19318220
2.82623998,-0.16156500,-0.19318220
2.84671998,-0.17062900,-0.14847250
2.86719998,-0.17970820,-0.14847250
2.88767998,-0.18878750,-0.10361030
2.90815998,-0.19786670,-0.10361030
2.92863998,-0.19786670,-0.05890072
2.94911998,-0.19786670,-0.01419111
2.96959998,-0.19786670,-0.01419111
2.99007998,-0.19331950,-0.01419111
3.01055998,-0.18878750,0.03051851
3.03103998,-0.18425550,0.07522812
3.05151998,-0.17517620,0.11993770
3.07199998,-0.16156500,0.11993770
3.09247998,-0.14793850,0.16464740
3.11295998,-0.13432720,0.16464740
3.13343998,-0.11618400,0.20935700
3.15391998,-0.09802545,0.20935700
3.17439998,-0.07988219,0.25406660
3.19487998,-0.05264442,0.29877620
3.21535998,-0.03903317,0.29877620
3.23583998,-0.01181066,0.29877620
3.25631998,0.01086459,0.34348580
3.27679998,0.02902310,0.34348580
3.29727998,0.05624561,0.34348580
3.31775998,0.07440412,0.34348580
3.33823998,0.09709464,0.34348580
3.35871998,0.11523790,0.29877620
3.37919998,0.12884910,0.29877620
3.39967998,0.14700760,0.25406660
3.42015998,0.16061890,0.20935700
3.44063998,0.16969820,0.20935700
3.46111998,0.18330940,0.16464740
3.48159998,0.18785670,0.16464740
3.50207998,0.18785670,0.11993770
3.52255998,0.19238870,0.07522812
3.54303998,0.19238870,0.03051851
3.56351998,0.18330940,-0.01419111
3.58399998,0.17877740,-0.01419111
3.60447998,0.16969820,-0.05890072
3.62495998,0.15608690,-0.14847250
3.64543998,0.14247570,-0.14847250
3.66591998,0.12884910,-0.19318220
3.68639998,0.11070590,-0.19318220
3.70687998,0.09254737,-0.23789180
3.72735998,0.07440412,-0.23789180
3.74783998,0.05171361,-0.23789180
3.76831998,0.02902310,-0.28260140
3.78879998,0.00633259,-0.32731100
3.80927998,-0.01634266,-0.32731100
3.82975998,-0.03450117,-0.32731100
3.85023998,-0.05719168,-0.28260140
3.87071998,-0.07988219,-0.28260140
3.89119998,-0.09802545,-0.28260140
3.91167998,-0.11618400,-0.28260140
3.93215998,-0.13887450,-0.23789180
3.95263998,-0.15248570,-0.19318220
3.97311998,-0.16609700,-0.19318220
3.99359998,-0.17970820,-0.14847250
4.01407998,-0.18425550,-0.14847250
4.03455998,-0.19331950,-0.14847250
4.05503998,-0.19786670,-0.10361030
4.07551998,-0.19786670,-0.05890072
4.09599998,-0.19786670,-0.01419111
4.11647997,-0.19331950,0.03051851
4.13695997,-0.18425550,0.03051851
4.15743997,-0.17970820,0.07522812
4.17791997,-0.16156500,0.11993770
4.19839997,-0.14340650,0.16464740
4.21887997,-0.12524790,0.20935700
4.23935997,-0.10710470,0.20935700
4.25983997,-0.08441419,0.29877620
4.28031997,-0.06172368,0.29877620
4.30079997,-0.02995392,0.34348580
4.32127997,-0.00726340,0.38834800
4.34175997,0.01541185,0.38834800
4.36223997,0.03810236,0.38834800
4.38271997,0.06532487,0.38834800
4.40319997,0.08801537,0.38834800
4.42367997,0.10615860,0.38834800
4.44415997,0.12884910,0.34348580
4.46463997,0.14700760,0.34348580
4.48511997,0.16061890,0.29877620
4.50559997,0.17423020,0.25406660
4.52607997,0.18330940,0.20935700
4.54655997,0.18785670,0.16464740
4.56703997,0.19238870,0.11993770
4.58751997,0.19238870,0.07522812
4.60799997,0.18785670,0.03051851
4.62847997,0.18330940,-0.01419111
4.64895997,0.17423020,-0.05890072
4.66943997,0.15608690,-0.14847250
4.68991997,0.14247570,-0.14847250
4.71039997,0.12431710,-0.19318220
4.73087997,0.10615860,-0.23789180
4.75135997,0.08348338,-0.28260140
4.77183997,0.05624561,-0.28260140
4.79231997,0.03810236,-0.32731100
4.81279997,0.01086459,-0.32731100
4.83327997,-0.01181066,-0.32731100
4.85375997,-0.03903317,-0.32731100
4.87423997,-0.06172368,-0.32731100
4.89471997,-0.08441419,-0.32731100
4.91519997,-0.10710470,-0.32731100
4.93567997,-0.12524790,-0.28260140
4.95615997,-0.14793850,-0.32731100
4.97663997,-0.16156500,-0.23789180
4.99711997,-0.17970820,-0.19318220
5.01759997,-0.18878750,-0.19318220
5.03807997,-0.19786670,-0.14847250
5.05855997,-0.19786670,-0.10361030
5.07903997,-0.19786670,-0.05890072
5.09951997,-0.19786670,-0.01419111
5.11999997,-0.19331950,0.03051851
5.14047997,-0.17970820,0.07522812
5.16095997,-0.16156500,0.11993770
5.18143997,-0.15248570,0.16464740
5.20191997,-0.12979520,0.20935700
5.22239997,-0.10710470,0.25406660
5.24287997,-0.08441419,0.34348580
5.26335997,-0.05264442,0.34348580
5.28383997,-0.02995392,0.38834800
5.30431997,0.00180059,0.38834800
5.32479997,0.02447584,0.43305760
5.34527997,0.05624561,0.43305760
5.36575997,0.07893612,0.47776730
5.38623997,0.10162660,0.43305760
5.40671997,0.12884910,0.38834800
5.42719997,0.14247570,0.38834800
5.44767997,0.16516620,0.34348580
5.46815997,0.17877740,0.29877620
5.48863997,0.18330940,0.25406660
5.50911997,0.19238870,0.20935700
5.52959997,0.19238870,0.16464740
5.55007997,0.19238870,0.07522812
5.57055997,0.18330940,0.03051851
5.59103997,0.17877740,-0.05890072
5.61151997,0.16061890,-0.14847250
5.63199997,0.14247570,-0.19318220
5.65247997,0.12431710,-0.23789180
5.67295997,0.10162660,-0.28260140
5.69343997,0.07893612,-0.32731100
5.71391997,0.05624561,-0.37202060
5.73439997,0.02447584,-0.37202060
5.75487997,-0.00273141,-0.41688280
5.77535996,-0.02995392,-0.41688280
5.79583996,-0.05264442,-0.41688280
5.81631996,-0.08441419,-0.37202060
5.83679996,-0.10710470,-0.37202060
5.85727996,-0.12524790,-0.37202060
5.87775996,-0.14793850,-0.32731100
5.89823996,-0.16609700,-0.28260140
5.91871996,-0.18425550,-0.23789180
5.93919996,-0.19331950,-0.19318220
5.95967996,-0.19786670,-0.14847250
5.98015996,-0.20239870,-0.10361030
6.00063996,-0.19786670,-0.01419111
6.02111996,-0.19786670,0.03051851
6.04159996,-0.17970820,0.07522812
6.06207996,-0.17062900,0.16464740
6.08255996,-0.15701770,0.16464740
6.10303996,-0.13432720,0.20935700
6.12351996,-0.10710470,0.29877620
6.14399996,-0.08894619,0.34348580
6.16447996,-0.05264442,0.38834800
6.18495996,-0.02542192,0.38834800
6.20543996,0.00633259,0.43305760
6.22591996,0.03355510,0.47776730
6.24639996,0.06532487,0.52247690
6.26687996,0.09254737,0.47776730
6.28735996,0.11978510,0.47776730
6.30783996,0.13792840,0.47776730
6.32831996,0.16061890,0.38834800
6.34879996,0.17423020,0.38834800
6.36927996,0.19238870,0.34348580
6.38975996,0.19238870,0.25406660
6.41023996,0.19238870,0.16464740
6.43071996,0.19238870,0.11993770
6.45119996,0.18330940,0.03051851
6.47167996,0.17423020,-0.05890072
6.49215996,0.15608690,-0.14847250
6.51263996,0.13792840,-0.19318220
6.53311996,0.11070590,-0.28260140
6.55359996,0.08348338,-0.32731100
6.57407996,0.05624561,-0.37202060
6.59455996,0.02447584,-0.46159250
6.61503996,-0.00273141,-0.50630210
6.63551996,-0.03450117,-0.50630210
6.65599996,-0.06172368,-0.50630210
6.67647996,-0.08894619,-0.50630210
6.69695996,-0.11618400,-0.50630210
6.71743996,-0.14340650,-0.41688280
6.73791996,-0.16156500,-0.37202060
6.75839996,-0.17970820,-0.32731100
6.77887996,-0.19331950,-0.28260140
6.79935996,-0.19786670,-0.19318220
6.81983996,-0.20239870,-0.14847250
6.84031996,-0.19786670,-0.05890072
6.86079996,-0.19331950,0.03051851
6.88127996,-0.18425550,0.11993770
6.90175996,-0.17062900,0.16464740
6.92223996,-0.15248570,0.25406660
6.94271996,-0.12524790,0.29877620
6.96319996,-0.09802545,0.38834800
6.98367996,-0.07080294,0.38834800
7.00415996,-0.04356517,0.43305760
7.02463996,-0.01181066,0.52247690
7.04511996,0.01086459,0.52247690
7.06559996,0.04716635,0.52247690
7.08607996,0.07440412,0.52247690
7.10655996,0.10162660,0.47776730
7.12703996,0.12884910,0.43305760
7.14751996,0.15153960,0.43305760
7.16799996,0.16969820,0.38834800
7.18847996,0.18330940,0.34348580
7.20895996,0.19238870,0.25406660
7.22943996,0.19692070,0.20935700
7.24991996,0.19238870,0.11993770
7.27039996,0.18330940,0.03051851
7.29087996,0.16969820,-0.01419111
7.31135996,0.15153960,-0.14847250
7.33183996,0.12884910,-0.19318220
7.35231996,0.09709464,-0.28260140
7.37279996,0.06985686,-0.37202060
7.39327996,0.03810236,-0.41688280
7.41375995,0.00180059,-0.50630210
7.43423995,-0.02542192,-0.55101170
7.45471995,-0.05719168,-0.55101170
7.47519995,-0.09349345,-0.55101170
7.49567995,-0.11618400,-0.55101170
7.51615995,-0.14340650,-0.55101170
7.53663995,-0.17062900,-0.50630210
7.55711995,-0.18878750,-0.41688280
7.57759995,-0.19786670,-0.37202060
7.59807995,-0.20239870,-0.23789180
7.61855995,-0.20693070,-0.19318220
7.63903995,-0.20239870,-0.05890072
7.65951995,-0.18878750,0.03051851
7.67999995,-0.17062900,0.11993770
7.70047995,-0.15248570,0.20935700
7.72095995,-0.12979520,0.34348580
7.74143995,-0.10255740,0.38834800
7.76191995,-0.07080294,0.47776730
7.78239995,-0.03903317,0.52247690
7.80287995,0.00180059,0.56718650
7.82335995,0.02902310,0.61189610
7.84383995,0.06079287,0.61189610
7.86431995,0.09254737,0.61189610
7.88479995,0.11978510,0.56718650
7.90527995,0.13792840,0.52247690
7.92575995,0.16061890,0.52247690
7.94623995,0.17877740,0.38834800
7.96671995,0.18785670,0.34348580
7.98719995,0.19238870,0.25406660
8.00767995,0.19238870,0.16464740
8.02815995,0.18785670,0.03051851
8.04863995,0.17877740,-0.05890072
8.06911995,0.16061890,-0.14847250
8.08959995,0.13792840,-0.23789180
8.11007995,0.11070590,-0.32731100
8.13055995,0.07893612,-0.41688280
8.15103995,0.04716635,-0.46159250
8.17151995,0.01086459,-0.50630210
8.19199995,-0.02087466,-0.59572130
8.21247995,-0.06172368,-0.59572130
8.23295995,-0.09349345,-0.59572130
8.25343995,-0.12524790,-0.55101170
8.27391995,-0.15248570,-0.55101170
8.29439995,-0.17062900,-0.50630210
8.31487995,-0.18878750,-0.46159250
8.33535995,-0.19786670,-0.37202060
8.35583995,-0.20693070,-0.28260140
8.37631995,-0.20693070,-0.19318220
8.39679995,-0.19331950,-0.05890072
8.41727995,-0.17970820,0.03051851
8.43775995,-0.15701770,0.16464740
8.45823995,-0.13432720,0.29877620
8.47871995,-0.10255740,0.38834800
8.49919995,-0.07080294,0.52247690
8.51967995,-0.03450117,0.56718650
8.54015995,0.00180059,0.65675830
8.56063995,0.03810236,0.70146790
8.58111995,0.07440412,0.70146790
8.60159995,0.10615860,0.70146790
8.62207995,0.13339640,0.70146790
8.64255995,0.16061890,0.65675830
8.66303995,0.17877740,0.56718650
8.68351995,0.19238870,0.47776730
8.70399995,0.20146790,0.34348580
8.72447995,0.19692070,0.25406660
8.74495995,0.19238870,0.11993770
8.76543995,0.18330940,0.03051851
8.78591995,0.16061890,-0.14847250
8.80639995,0.13792840,-0.23789180
8.82687995,0.10615860,-0.37202060
8.84735995,0.07440412,-0.46159250
8.86783995,0.04263435,-0.55101170
8.88831995,0.00633259,-0.59572130
8.90879995,-0.02995392,-0.68529310
8.92927995,-0.06625568,-0.68529310
8.94975995,-0.10255740,-0.68529310
8.97023995,-0.12979520,-0.68529310
8.99071995,-0.15701770,-0.59572130
9.01119995,-0.17517620,-0.55101170
9.03167995,-0.19331950,-0.46159250
9.05215994,-0.20239870,-0.37202060
9.07263994,-0.20693070,-0.23789180
9.09311994,-0.20239870,-0.14847250
9.11359994,-0.19331950,-0.01419111
9.13407994,-0.17517620,0.11993770
9.15455994,-0.14793850,0.25406660
9.17503994,-0.12071600,0.38834800
9.19551994,-0.08894619,0.47776730
9.21599994,-0.04811243,0.56718650
9.23647994,-0.00726340,0.65675830
9.25695994,0.02902310,0.70146790
9.27743994,0.06532487,0.74617760
9.29791994,0.10615860,0.74617760
9.31839994,0.13339640,0.74617760
9.33887994,0.16516620,0.70146790
9.35935994,0.18330940,0.61189610
9.37983994,0.19238870,0.56718650
9.40031994,0.20146790,0.38834800
9.42079994,0.20146790,0.29877620
9.44127994,0.19238870,0.16464740
9.46175994,0.17423020,0.03051851
9.48223994,0.14700760,-0.14847250
9.50271994,0.12431710,-0.28260140
9.52319994,0.09254737,-0.41688280
9.54367994,0.05171361,-0.55101170
9.56415994,0.01086459,-0.64043090
9.58463994,-0.02542192,-0.73000280
9.60511994,-0.06625568,-0.77471240
9.62559994,-0.10710470,-0.77471240
9.64607994,-0.13432720,-0.77471240
9.66655994,-0.16156500,-0.73000280
9.68703994,-0.18878750,-0.68529310
9.70751994,-0.20693070,-0.55101170
9.72799994,-0.20693070,-0.46159250
9.74847994,-0.20693070,-0.32731100
9.76895994,-0.20239870,-0.19318220
9.78943994,-0.18878750,-0.01419111
9.80991994,-0.16609700,0.11993770
9.83039994,-0.13432720,0.29877620
9.85087994,-0.10710470,0.43305760
9.87135994,-0.07080294,0.56718650
9.89183994,-0.03450117,0.70146790
9.91231994,0.01086459,0.79088720
9.93279994,0.05171361,0.83559680
9.95327994,0.08801537,0.83559680
9.97375994,0.11978510,0.83559680
9.99423994,0.14700760,0.79088720
10.01471994,0.16969820,0.74617760
10.03519994,0.18785670,0.61189610
10.05567994,0.20146790,0.52247690
10.07615994,0.20146790,0.38834800
10.09663994,0.19238870,0.20935700
10.11711994,0.18330940,0.11993770
10.13759994,0.16061890,-0.10361030
10.15807994,0.12884910,-0.28260140
10.17855994,0.09254737,-0.41688280
10.19903994,0.05624561,-0.55101170
10.21951994,0.01994385,-0.68529310
10.23999994,-0.02542192,-0.77471240
10.26047994,-0.07080294,-0.86413160
10.28095994,-0.10710470,-0.86413160
10.30143994,-0.14340650,-0.86413160
10.32191994,-0.17062900,-0.81942200
10.34239994,-0.19786670,-0.73000280
10.36287994,-0.20693070,-0.68529310
10.38335994,-0.21147800,-0.50630210
10.40383994,-0.20693070,-0.32731100
10.42431994,-0.19331950,-0.14847250
10.44479994,-0.17970820,0.03051851
10.46527994,-0.14793850,0.20935700
10.48575994,-0.11618400,0.38834800
10.50623994,-0.07080294,0.52247690
10.52671994,-0.02995392,0.70146790
10.54719994,0.01086459,0.79088720
10.56767994,0.05624561,0.92516860
10.58815994,0.09254737,0.96987830
10.60863994,0.12884910,0.96987830
10.62911994,0.15608690,0.92516860
10.64959994,0.18330940,0.88030640
10.67007994,0.20146790,0.74617760
10.69055994,0.20146790,0.61189610
10.71103993,0.20599990,0.43305760
10.73151993,0.19238870,0.29877620
10.75199993,0.17423020,0.03051851
10.77247993,0.14700760,-0.14847250
10.79295993,0.11523790,-0.32731100
10.81343993,0.07440412,-0.50630210
10.83391993,0.03355510,-0.68529310
10.85439993,-0.00726340,-0.81942200
10.87487993,-0.04811243,-0.90884120
10.89535993,-0.08894619,-0.95370340
10.91583993,-0.12524790,-0.95370340
10.93631993,-0.15701770,-0.90884120
10.95679993,-0.18425550,-0.86413160
10.97727993,-0.20239870,-0.77471240
10.99775993,-0.21147800,-0.64043090
11.01823993,-0.21147800,-0.41688280
11.03871993,-0.20693070,-0.32731100
11.05919993,-0.19331950,-0.05890072
11.07967993,-0.16156500,0.16464740
11.10015993,-0.12524790,0.34348580
11.12063993,-0.08894619,0.52247690
11.14111993,-0.04356517,0.70146790
11.16159993,0.00180059,0.88030640
11.18207993,0.04716635,0.96987830
11.20255993,0.08801537,1.05929700
11.22303993,0.12884910,1.05929700
11.24351993,0.16061890,1.01458800
11.26399993,0.18330940,0.92516860
11.28447993,0.20146790,0.83559680
11.30495993,0.20599990,0.70146790
11.32543993,0.20599990,0.52247690
11.34591993,0.19238870,0.29877620
11.36639993,0.16969820,0.07522812
11.38687993,0.13792840,-0.14847250
11.40735993,0.09709464,-0.37202060
11.42783993,0.05624561,-0.55101170
11.44831993,0.01086459,-0.73000280
11.46879993,-0.03450117,-0.90884120
11.48927993,-0.08441419,-1.04312300
11.50975993,-0.12071600,-1.08783200
11.53023993,-0.15701770,-1.08783200
11.55071993,-0.18878750,-1.04312300
11.57119993,-0.20693070,-0.95370340
11.59167993,-0.21601000,-0.81942200
11.61215993,-0.21601000,-0.64043090
11.63263993,-0.20693070,-0.41688280
11.65311993,-0.18878750,-0.19318220
11.67359993,-0.15701770,0.03051851
11.69407993,-0.12071600,0.34348580
11.71455993,-0.07988219,0.56718650
11.73503993,-0.03450117,0.74617760
11.75551993,0.01086459,0.92516860
11.77599993,0.05624561,1.05929700
11.79647993,0.10162660,1.14871700
11.81695993,0.13792840,1.19357900
11.83743993,0.16969820,1.14871700
11.85791993,0.19692070,1.05929700
11.87839993,0.20599990,0.92516860
11.89887993,0.21053190,0.74617760
11.91935993,0.20146790,0.52247690
11.93983993,0.18785670,0.29877620
