frequency,input_amplitude,output_amplitude,input_phase,output_phase,phase_diff_rad,phase_diff_deg
0.000000000000000000e+00,3.574745856515365583e-02,2.828625601661082450e-05,-0.000000000000000000e+00,-3.141592653589793116e+00,-3.141592653589793116e+00,-1.800000000000000000e+02
1.999960000799984172e+01,3.589637095724779875e-02,5.295766359765862944e-05,-9.400679506182416101e-02,-4.242232501845554893e+00,2.134959600395855528e+00,1.223241745336192707e+02
3.999920001599968344e+01,3.634269506773441655e-02,9.490430375985864082e-05,-1.896151217325391380e-01,-4.598074749917776316e+00,1.874725678994349609e+00,1.074138691511737989e+02
5.999880002399952161e+01,3.708505732438769492e-02,1.413640487973770519e-04,-2.883891329177006302e-01,-4.797629832960535801e+00,1.773944607136751506e+00,1.016395390789287489e+02
7.999840003199936689e+01,3.812071585360989057e-02,1.916428057411615686e-04,-3.918228717314479193e-01,-4.954234474650577980e+00,1.720773704260455839e+00,9.859307075121699881e+01
9.999800003999921216e+01,3.944486717355967509e-02,2.463413201169763482e-04,-5.013158709498880539e-01,-5.096998991137133395e+00,1.687502186992340780e+00,9.668675323375737207e+01
1.199976000479990432e+02,4.104965330232705073e-02,3.062803461948435460e-04,-6.181591760827748194e-01,-5.237082330123058682e+00,1.664262153139303146e+00,9.535519737823716468e+01
1.399972000559988885e+02,4.292286144182488883e-02,3.722905238465966360e-04,-7.435321831762411460e-01,-5.380047198182695389e+00,1.646670292173132433e+00,9.434725799109463651e+01
1.599968000639987338e+02,4.504632491070337252e-02,4.451271844492895777e-04,-8.785093303612807603e-01,-5.529225776740554821e+00,1.632468860800311949e+00,9.353357591038735563e+01
1.799964000719985791e+02,4.739406255135075047e-02,5.254057745657970827e-04,-1.024074935764513583e+00,-5.686896727577813948e+00,1.620363515366286311e+00,9.283999070746972393e+01
1.999960000799984243e+02,4.993023632820117741e-02,6.135350549340668576e-04,-1.181144357179950255e+00,-5.854779143560690180e+00,1.609550520798846751e+00,9.222045175485754953e+01
2.199956000879982696e+02,5.260706546273209022e-02,7.096424597173214138e-04,-1.350590026618000650e+00,-6.034273974244332095e+00,1.599501359553255009e+00,9.164467722783871295e+01
2.399952000959980865e+02,5.536291241143152103e-02,8.134921122594342482e-04,-1.533271599285516817e+00,-6.226600098251998006e+00,1.589856808213104378e+00,9.109208514075083940e+01
2.599948001039979317e+02,5.812085276502294839e-02,9.244000556960108722e-04,-1.730070293223150646e+00,-6.432882643725830185e+00,1.580372956676907359e+00,9.054870047419808543e+01
2.799944001119977770e+02,6.078815744010798022e-02,1.041155374788946611e-03,-1.941928382989464907e+00,-6.654218862221578767e+00,1.570894827947472150e+00,9.000564370031975159e+01
2.999940001199976223e+02,6.325724796523432558e-02,1.161960630978456409e-03,-2.169895691099437585e+00,-6.891733997987722127e+00,1.561347000291301690e+00,8.945859347210290480e+01
3.199936001279974676e+02,6.540882604265213507e-02,1.284410456153885867e-03,-2.415185716734691290e+00,-7.146633966654325931e+00,1.551737057259951369e+00,8.890798429504536671e+01
3.399932001359973128e+02,6.711801118366474139e-02,1.405532936416475746e-03,-2.679244519667884905e+00,-7.420258721205405195e+00,1.542171105642065498e+00,8.835989564031416421e+01
3.599928001439971581e+02,6.826441608995924282e-02,1.521923777793281717e-03,-2.963834959026510951e+00,-7.714137794503685974e+00,1.532882471702411209e+00,8.782769611813000665e+01
3.799924001519970034e+02,6.874709166093653789e-02,1.630006608342708489e-03,-3.271135608515023829e+00,-8.030046040236596738e+00,1.524274875458014211e+00,8.733451718157340338e+01
3.999920001599968487e+02,6.850505817727853275e-02,1.726451107404900452e-03,-3.603843474319373907e+00,-8.370051000803496066e+00,1.516977780695465627e+00,8.691642444897235009e+01
4.199916001679966939e+02,6.754341762007530503e-02,1.808768143900052559e-03,-3.965243752984540571e+00,-8.736530589107967870e+00,1.511898471056159821e+00,8.662540144380000129e+01
4.399912001759965392e+02,6.596314925204263546e-02,1.876066840362274144e-03,-4.359153214279027466e+00,-9.132117303076668691e+00,1.510221218381943675e+00,8.652930194439039724e+01
4.599908001839963845e+02,6.398828032386497111e-02,1.929884044617676290e-03,-4.789543381123352539e+00,-9.559492869253571001e+00,1.513235819049368214e+00,8.670202583955114051e+01
4.799904001919961729e+02,6.197536801429495701e-02,1.974859688055047215e-03,-5.259544395198538780e+00,-1.002093167102871440e+01,1.521798031349411273e+00,8.719260446763860273e+01
4.999900001999960182e+02,6.037797584712747273e-02,2.018834046706533773e-03,-5.769641998186878951e+00,-1.051753134914222798e+01,1.535295956224236980e+00,8.796597859515077289e+01
5.199896002079958635e+02,5.963622638573867069e-02,2.071792432589317050e-03,-6.315658603387291237e+00,-1.104827959358146927e+01,1.550564316985409308e+00,8.884079122684909180e+01
5.399892002159957656e+02,5.999894429012599117e-02,2.143279965213765355e-03,-6.888449784095938000e+00,-1.160950619376280457e+01,1.562128897512718328e+00,8.950339288290308559e+01
5.599888002239955540e+02,6.136686353733157573e-02,2.238766987993824446e-03,-7.477075044548821658e+00,-1.219549233374013220e+01,1.564768017988276583e+00,8.965460334777912976e+01
5.799884002319954561e+02,6.327818273390833914e-02,2.356617559613855776e-03,-8.073889793780276491e+00,-1.280042033130336065e+01,1.556654769656502069e+00,8.918974846022689462e+01
5.999880002399952446e+02,6.506213643987866779e-02,2.487566714929759573e-03,-8.677662893423164547e+00,-1.342066920793245366e+01,1.540178992670297120e+00,8.824575597471857691e+01
6.199876002479951467e+02,6.607301878101277948e-02,2.617341538382126666e-03,-9.293341143863562692e+00,-1.405610161377876643e+01,1.520424837264381601e+00,8.711392624211407565e+01
6.399872002559949351e+02,6.591437334976432694e-02,2.731478589003468252e-03,-9.930155143790834416e+00,-1.470991424452364704e+01,1.503426206446774271e+00,8.613997643876416532e+01
6.599868002639947235e+02,6.461251652533646361e-02,2.820771818332258422e-03,-1.059944645014825859e+01,-1.538752056871571128e+01,1.495111188612134878e+00,8.566356101026332226e+01
6.799864002719946257e+02,6.270043946534577251e-02,2.885783518918868217e-03,-1.131162441507452598e+01,-1.609491151192865033e+01,1.499898210325462777e+00,8.593783715087448627e+01
6.999860002799944141e+02,6.111267927028154329e-02,2.938556085730243805e-03,-1.207076159590077147e+01,-1.683654039342353315e+01,1.517406509656826108e+00,8.694098880901333359e+01
7.199856002879943162e+02,6.076173019027927835e-02,2.999233896506604217e-03,-1.286848669686060553e+01,-1.761296202588038895e+01,1.538709978159803482e+00,8.816158764322381103e+01
7.399852002959941046e+02,6.190236901381905577e-02,3.086566660556700273e-03,-1.368568323336651460e+01,-1.841959877094875608e+01,1.549269769597344970e+00,8.876661912513333164e+01
7.599848003039940068e+02,6.383223646077436364e-02,3.206048841906429959e-03,-1.450612624736398182e+01,-1.924867955358628180e+01,1.540632000957284697e+00,8.827171143764741146e+01
7.799844003119937952e+02,6.531586431586207386e-02,3.344405756074936981e-03,-1.532843415275184107e+01,-2.009406527445992552e+01,1.517554185471500450e+00,8.694945000993033091e+01
7.999840003199936973e+02,6.537681438503545328e-02,3.476381189327591974e-03,-1.616552875055168670e+01,-2.095523033623679154e+01,1.493483721494482941e+00,8.557031401312553953e+01
8.199836003279934857e+02,6.393009327364872207e-02,3.580318819671032306e-03,-1.703709976312151397e+01,-2.183743191737712053e+01,1.482853152923980122e+00,8.496122730021130565e+01
8.399832003359933879e+02,6.197803276887293988e-02,3.653072109710045565e-03,-1.795928078584218213e+01,-2.274851154339280157e+01,1.493954549628963901e+00,8.559729047810731117e+01
8.599828003439931763e+02,6.108714976224640519e-02,3.714817703947183563e-03,-1.893057347798950829e+01,-2.369402452962156858e+01,1.519734255547527946e+00,8.707435882432946528e+01
8.799824003519930784e+02,6.208221876773972747e-02,3.797325876747752356e-03,-1.992626930623474024e+01,-2.467281648903259494e+01,1.536638124381731751e+00,8.804287916597206731e+01
8.999820003599928668e+02,6.408892935929763612e-02,3.918962333407653709e-03,-2.092061262926527476e+01,-2.567694767213301432e+01,1.526850264311849115e+00,8.748207609350316716e+01
9.199816003679927690e+02,6.527415889658566561e-02,4.066236082227252767e-03,-2.191311859902399206e+01,-2.669817717271418189e+01,1.498126733489396623e+00,8.583633900466270461e+01
9.399812003759925574e+02,6.452040427872032802e-02,4.202955051778170699e-03,-2.292695461729628903e+01,-2.773546372045741037e+01,1.474676204018463777e+00,8.449272263863110766e+01
9.599808003839923458e+02,6.249485551053687166e-02,4.302061868350282557e-03,-2.399021562718120748e+01,-2.879587135259403397e+01,1.477529581766759970e+00,8.465620914096501792e+01
9.799804003919922479e+02,6.128402311092345095e-02,4.372554953860153908e-03,-2.511043193144489294e+01,-2.988843283568413867e+01,1.505184402940338506e+00,8.624071367740009464e+01
9.999800003999920364e+02,6.229640369588057558e-02,4.455295853438461136e-03,-2.625815518102017165e+01,-3.101564832042177855e+01,1.525692167777980002e+00,8.741572204984373684e+01
1.019979600407991938e+03,6.438171335788026028e-02,4.583295829938915586e-03,-2.739886112314378508e+01,-3.216996657338805932e+01,1.512079856935309996e+00,8.663579408913858515e+01
1.039979200415991727e+03,6.509497899448930813e-02,4.742425506098095489e-03,-2.853683586518767967e+01,-3.334142574180336283e+01,1.478595430563901525e+00,8.471727777864032305e+01
1.059978800423991515e+03,6.355435823289230790e-02,4.883114464604067922e-03,-2.970785088460145218e+01,-3.452921425389591548e+01,1.461821937885125156e+00,8.375622744045284662e+01
1.079978400431991531e+03,6.162176452948429917e-02,4.976946648030579172e-03,-3.094144826655822200e+01,-3.574276820405084720e+01,1.481865369686958367e+00,8.490463148965619666e+01
1.099978000439991320e+03,6.190499634288584851e-02,5.054482972969925880e-03,-3.222009529681478313e+01,-3.699107587911105810e+01,1.512204724883310369e+00,8.664294849555545852e+01
1.119977600447991108e+03,6.405127824932475844e-02,5.173289156401049416e-03,-3.349477491230607029e+01,-3.827121718372182357e+01,1.506743035763833394e+00,8.633001675999690860e+01
1.139977200455990896e+03,6.502595497448988848e-02,5.341641063037820894e-03,-3.475863925521819908e+01,-3.957104249125568174e+01,1.470782071142101577e+00,8.426960525995241369e+01
1.159976800463990912e+03,6.340969923300934785e-02,5.500684422484856603e-03,-3.605459772661794915e+01,-4.088582259882758763e+01,1.451960434969952418e+00,8.319120494375749786e+01
1.179976400471990701e+03,6.154833285542905819e-02,5.604135708028270234e-03,-3.741871502473249222e+01,-4.222522526877483529e+01,1.476675063137241173e+00,8.460724882997828900e+01
1.199976000479990489e+03,6.241330167810056617e-02,5.689451739314778551e-03,-3.882182038391309931e+01,-4.360002884259485967e+01,1.504976848497828090e+00,8.622882168382506052e+01
1.219975600487990278e+03,6.462161799611601531e-02,5.829984309205293175e-03,-4.020881782846367969e+01,-4.500575822755648403e+01,1.486244908086784111e+00,8.515556055618168330e+01
1.239975200495990293e+03,6.453656100107528493e-02,6.018741625633812313e-03,-4.159344730403109480e+01,-4.642844376000255835e+01,1.448188851208120909e+00,8.297510911212447127e+01
1.259974800503990082e+03,6.225251393981136305e-02,6.171155756601328680e-03,-4.303418871450596583e+01,-4.786733847578367573e+01,1.450035545901876111e+00,8.308091692412585871e+01
1.279974400511989870e+03,6.175640357981136697e-02,6.263426839250086850e-03,-4.454093491060805121e+01,-4.933667154069861738e+01,1.487448677089024507e+00,8.522453143951872789e+01
1.299974000519989659e+03,6.400427374960922233e-02,6.381988278287206544e-03,-4.604651392558892553e+01,-5.084212459416774976e+01,1.487574638600765553e+00,8.523174850252257784e+01
1.319973600527989447e+03,6.481927672576648369e-02,6.577501299034646358e-03,-4.753263645557704109e+01,-5.236974515457796286e+01,1.446076608178660683e+00,8.285408650123048346e+01
1.339973200535989463e+03,6.264366628454107189e-02,6.763663855592792415e-03,-4.906322109834935219e+01,-5.391078064894929867e+01,1.435625756579641754e+00,8.225529681228914569e+01
1.359972800543989251e+03,6.167546699070185906e-02,6.871837772235195492e-03,-5.066921496312998840e+01,-5.547854429439642132e+01,1.473855975913153982e+00,8.444572702995884583e+01
1.379972400551989040e+03,6.392079116375816439e-02,6.990024431526874193e-03,-5.227926451868283664e+01,-5.708380133233253417e+01,1.478648493529892471e+00,8.472031806264004672e+01
1.399972000559988828e+03,6.475566446368967444e-02,7.199871820027852094e-03,-5.386470116815600306e+01,-5.871287396834160432e+01,1.435012506993983861e+00,8.222016019924279817e+01
1.419971600567988844e+03,6.241775470684955696e-02,7.402440801998164642e-03,-5.549905336194346717e+01,-6.035452573559210521e+01,1.427712933530948192e+00,8.180192544756516781e+01
1.439971200575988632e+03,6.190764408326945856e-02,7.515052711416442613e-03,-5.720926702768982608e+01,-6.202381043599636001e+01,1.468641898873047413e+00,8.414698242150467422e+01
1.459970800583988421e+03,6.439541952585861595e-02,7.655967751194335535e-03,-5.890853117672450878e+01,-6.373097663871261176e+01,1.460739845191482145e+00,8.369422809606516012e+01
1.479970400591988209e+03,6.427471387656463753e-02,7.897150035816461258e-03,-6.059101436086159964e+01,-6.545834532735342748e+01,1.415854340687761725e+00,8.112247812668653069e+01
1.499970000599988225e+03,6.178925255646099124e-02,8.091869555673742928e-03,-6.234551566670544531e+01,-6.719919052649332514e+01,1.429510447391702854e+00,8.190491540540267579e+01
1.519969600607988014e+03,6.280368747745472546e-02,8.203268566975606760e-03,-6.415493170835418368e+01,-6.897371600005817527e+01,1.464401015475596646e+00,8.390399770142363423e+01
1.539969200615987802e+03,6.488451078613922951e-02,8.404478418341399665e-03,-6.592810818195094669e+01,-7.078260356451792745e+01,1.428689924612595918e+00,8.185790291316550338e+01
1.559968800623987590e+03,6.294643363656049484e-02,8.669258447744198487e-03,-6.772317231850462349e+01,-7.260429790713833142e+01,1.402059718545896061e+00,8.033210449797991259e+01
1.579968400631987606e+03,6.179159702052939435e-02,8.821053818609272956e-03,-6.960796075355099788e+01,-7.444750503244037532e+01,1.443641028290211459e+00,8.271453805295539041e+01
1.599968000639987395e+03,6.439789668894334296e-02,8.975356522635407480e-03,-7.148634801232020664e+01,-7.633036646758318966e+01,1.439166851916612089e+00,8.245818662995100112e+01
1.619967600647987183e+03,6.399783239396589218e-02,9.262334206579165771e-03,-7.334291364710048811e+01,-7.823427245846960432e+01,1.391826495810462916e+00,7.974578402442227798e+01
1.639967200655986971e+03,6.162605156756786190e-02,9.479378838442277522e-03,-7.528516914347851241e+01,-8.015128114219818656e+01,1.417073308459917191e+00,8.119231983539350495e+01
1.659966800663986760e+03,6.368422364094859789e-02,9.617561739209818522e-03,-7.726063766791703813e+01,-8.210555450019833756e+01,1.438268474898299676e+00,8.240671341839015440e+01
1.679966400671986776e+03,6.453286149734654975e-02,9.902472977685561686e-03,-7.919325130169208649e+01,-8.408897621308058490e+01,1.387460395791089152e+00,7.949562492038018036e+01
1.699966000679986564e+03,6.180671115768442136e-02,1.017609022266142624e-02,-8.119463209971668505e+01,-8.608255004979402258e+01,1.395267357102249139e+00,7.994293085433156421e+01
1.719965600687986353e+03,6.322259914095061661e-02,1.032266096292368436e-02,-8.325553700286428693e+01,-8.810935622268947043e+01,1.429366087354407844e+00,8.189664418453531880e+01
1.739965200695986141e+03,6.470867811562348859e-02,1.060985114456032552e-02,-8.526713531816869818e+01,-9.016990110789735979e+01,1.380419517450913514e+00,7.909221230742303987e+01
1.759964800703986157e+03,6.192666475407041654e-02,1.092425381750715407e-02,-8.733631378104027476e+01,-9.224016143742623797e+01,1.379337650793637238e+00,7.903022591396518237e+01
1.779964400711985945e+03,6.312289404785566271e-02,1.108749448098664617e-02,-8.947556247788601524e+01,-9.434161852766348488e+01,1.417129257402117481e+00,8.119552547364980910e+01
1.799964000719985734e+03,6.469831819544875906e-02,1.139674054513355010e-02,-9.156231886072053783e+01,-9.647809211402352503e+01,1.367412053876595035e+00,7.834693954244443148e+01
1.819963600727985522e+03,6.184668956262247275e-02,1.173727181490991610e-02,-9.370915038519929396e+01,-9.862400582287126838e+01,1.368329869507621588e+00,7.839952650447338556e+01
1.839963200735985538e+03,6.338962982431096960e-02,1.191828945025931279e-02,-9.592177085061545938e+01,-1.008022791513436260e+02,1.402677006451431785e+00,8.036747248971158797e+01
1.859962800743985326e+03,6.448918732149154509e-02,1.227559858130984963e-02,-9.807892761608945875e+01,-1.030137527708811547e+02,1.348360152387895639e+00,7.725534599544295133e+01
1.879962400751985115e+03,6.165649989755858651e-02,1.262295686745463531e-02,-1.003138839005526393e+02,-1.052344859690953598e+02,1.362583238636862371e+00,7.807026880915930178e+01
1.899962000759984903e+03,6.399350083901519937e-02,1.283185842265681907e-02,-1.025913870694632379e+02,-1.074916870521435754e+02,1.382885324499256052e+00,7.923349264438667205e+01
1.919961600767984692e+03,6.389447939855548431e-02,1.325939524916147465e-02,-1.048196548543315316e+02,-1.097763543586143840e+02,1.326485802896739452e+00,7.600203809000555566e+01
1.939961200775984707e+03,6.170559896082564166e-02,1.358463373784393573e-02,-1.071512243195938794e+02,-1.120726698355783384e+02,1.361739791195132998e+00,7.802194283050710055e+01
1.959960800783984496e+03,6.468997164400451527e-02,1.385995934165528375e-02,-1.094791433682250386e+02,-1.144099973458272927e+02,1.352331329577338703e+00,7.748287768809666431e+01
1.979960400791984284e+03,6.279262375315165789e-02,1.435100548138492499e-02,-1.117922793793259473e+02,-1.167651375307259229e+02,1.310327155779614561e+00,7.507621580755306923e+01
1.999960000799984073e+03,6.251593011155276436e-02,1.463518485036804408e-02,-1.142153874679637795e+02,-1.191406473553795564e+02,1.357925419763827746e+00,7.780339544599803503e+01
2.019959600807984089e+03,6.478075387933253382e-02,1.504466746697406647e-02,-1.165833869776978844e+02,-1.215559050667397685e+02,1.310667218137697709e+00,7.509569994544250449e+01
2.039959200815983877e+03,6.171288209301954708e-02,1.553208258825500114e-02,-1.190080526698680643e+02,-1.239807848127566672e+02,1.310453164290984907e+00,7.508343556343731962e+01
2.059958800823983893e+03,6.407589729456472649e-02,1.582857671846354952e-02,-1.214899845474170093e+02,-1.264403324883511743e+02,1.332837366245435806e+00,7.636595586319583617e+01
2.079958400831983454e+03,6.350400899820810019e-02,1.639884147373921533e-02,-1.239175964761258797e+02,-1.289266113923016519e+02,1.274170391003829117e+00,7.300458578505327978e+01
2.099958000839983470e+03,6.208901216884181451e-02,1.679534782440997992e-02,-1.264625715669207864e+02,-1.314274515248624482e+02,1.318305349237949509e+00,7.553333262085453725e+01
2.119957600847983031e+03,6.487212483943143038e-02,1.726012517969476023e-02,-1.289652878040693622e+02,-1.339695189825827129e+02,1.278954128666226930e+00,7.327867376340645933e+01
2.139957200855983046e+03,6.173875316218798565e-02,1.786066032077140639e-02,-1.315094689641332195e+02,-1.365225025713114917e+02,1.270151700001321382e+00,7.277433175144238930e+01
2.159956800863983062e+03,6.417303984378162907e-02,1.824374619349175553e-02,-1.341179844518130153e+02,-1.391094908237077732e+02,1.291678935284830132e+00,7.400775147777255825e+01
2.179956400871982623e+03,6.319339703954532372e-02,1.893942180388655944e-02,-1.366712976917934839e+02,-1.417219381260847229e+02,1.232544872888373000e+00,7.061961927699229591e+01
2.199956000879982639e+03,6.250587238524137057e-02,1.940650317121184881e-02,-1.393475675213727243e+02,-1.443520934904095725e+02,1.278659338142740687e+00,7.326178351057023974e+01
2.219955600887982655e+03,6.461992825891070547e-02,2.005254949689650248e-02,-1.419604336862145431e+02,-1.470212084010075557e+02,1.222410592386596662e+00,7.003896777583878475e+01
