Frequency (Hz),Input Amplitude (two-sided),Reference Amplitude (two-sided),Mix Amplitude (two-sided),Output Amplitude (two-sided)
-1032891.2021267092,0.00029318384586741043,7.365241174975204e-05,0.0006031311333008369,8.533460021673808e-05
-1032557.903900789,0.00029318392587926364,7.365243072027572e-05,0.0006031312920032339,8.533462214111435e-05
-1032224.6056748688,0.00029318408590381633,7.365246866136545e-05,0.0006031316093901475,8.533466598988106e-05
-1031891.3074489486,0.00029318432593914323,7.365252557306172e-05,0.0006031320854601471,8.533473176310715e-05
-1031558.0092230284,0.0002931846459867867,7.365260145525513e-05,0.0006031327202281722,8.533481946086366e-05
-1031224.7109971083,0.0002931850460493898,7.365269630837072e-05,0.0006031335136974475,8.533492908327895e-05
-1030891.412771188,0.0002931855261252998,7.3652810132417e-05,0.0006031344658596853,8.533506063049221e-05
-1030558.1145452678,0.00029318608621505546,7.365294292743023e-05,0.0006031355767180592,8.533521410266062e-05
-1030224.8163193476,0.0002931867263201959,7.365309469367561e-05,0.0006031368462769647,8.533538949998662e-05
-1029891.5180934274,0.0002931874464407585,7.365326543133336e-05,0.0006031382745347576,8.53355868226971e-05
-1029558.2198675072,0.00029318824657939747,7.365345514070948e-05,0.0006031398614946793,8.533580607104907e-05
-1029224.9216415869,0.00029318912673611104,7.365366382181995e-05,0.0006031416071595677,8.533604724531764e-05
-1028891.6234156667,0.0002931900869113591,7.36538914750377e-05,0.0006031435115297624,8.533631034581674e-05
-1028558.3251897466,0.00029319112710807753,7.365413810078693e-05,0.0006031455746095738,8.533659537288448e-05
-1028225.0269638264,0.00029319224732710585,7.365440369919996e-05,0.000603147796402185,8.533690232688649e-05
-1027891.7287379062,0.0002931934475692678,7.3654688270841e-05,0.0006031501769090743,8.533723120821353e-05
-1027558.430511986,0.0002931947278389181,7.365499181582676e-05,0.0006031527161335688,8.53375820172978e-05
-1027225.1322860657,0.00029319608813577934,7.365531433471338e-05,0.0006031554140804602,8.53379547545725e-05
-1026891.8340601455,0.0002931975284604592,7.365565582784108e-05,0.0006031582707515947,8.53383494205421e-05
-1026558.5358342254,0.0002931990488189075,7.365601629564615e-05,0.0006031612861508233,8.533876601568556e-05
-1026225.2376083052,0.00029320064920774634,7.36563957389881e-05,0.0006031644602876049,8.533920454056892e-05
-1025891.939382385,0.0002932023296377715,7.365679415727435e-05,0.0006031677931537351,8.53396649957246e-05
-1025558.6411564647,0.0002932040901007737,7.365721155246168e-05,0.0006031712847700806,8.534014738176309e-05
-1025225.3429305445,0.00029320593060648136,7.365764792391967e-05,0.000603174935127225,8.534065169929984e-05
-1024892.0447046243,0.0002932078511590696,7.365810327295947e-05,0.0006031787442422372,8.534117794899213e-05
-1024558.7464787042,0.0002932098517513498,7.365857759935594e-05,0.0006031827121044482,8.534172613149659e-05
-1024225.448252784,0.0002932119323980066,7.365907090483943e-05,0.0006031868387351894,8.53422962475313e-05
-1023892.1500268637,0.00029321409309474467,7.365958318912597e-05,0.0006031911241319111,8.534288829783284e-05
-1023558.8518009435,0.000293216333847773,7.366011445328361e-05,0.0006031955683003153,8.534350228314514e-05
-1023225.5535750233,0.0002932186546567478,7.366066469784548e-05,0.0006032001712483826,8.534413820427952e-05
-1022892.2553491031,0.0002932210555291321,7.366123392360722e-05,0.0006032049329813419,8.534479606203849e-05
-1022558.957123183,0.0002932235364685221,7.366182213136663e-05,0.0006032098535071312,8.534547585725883e-05
-1022225.6588972628,0.00029322609747470854,7.366242932172224e-05,0.0006032149328312948,8.534617759084523e-05
-1021892.3606713425,0.0002932287385533917,7.366305549555434e-05,0.0006032201709596446,8.534690126367474e-05
-1021559.0624454223,0.00029323145970982416,7.366370065358902e-05,0.0006032255679012822,8.534764687667726e-05
-1021225.7642195021,0.0002932342609436196,7.36643647967529e-05,0.000603231123661581,8.534841443082413e-05
-1020892.4659935819,0.00029323714226299014,7.366504792597098e-05,0.0006032368382490562,8.534920392709502e-05
-1020559.1677676617,0.0002932401036721054,7.366575004187464e-05,0.0006032427116711704,8.535001536650451e-05
-1020225.8695417414,0.00029324314517066536,7.366647114562694e-05,0.0006032487439359174,8.535084875008793e-05
-1019892.5713158213,0.00029324626676812456,7.36672112379788e-05,0.0006032549350508532,8.535170407894398e-05
-1019559.2730899011,0.0002932494684680819,7.366797031999274e-05,0.0006032612850255676,8.535258135413381e-05
-1019225.9748639809,0.0002932527502691226,7.366874839265415e-05,0.000603267793866908,8.535348057681694e-05
-1018892.6766380607,0.0002932561121857867,7.366954545690604e-05,0.0006032744615844238,8.53544017481307e-05
-1018559.3784121405,0.00029325955421846293,7.36703615138046e-05,0.0006032812881873677,8.535534486926757e-05
-1018226.0801862202,0.00029326307636312723,7.367119656437053e-05,0.0006032882736847645,8.535630994144768e-05
-1017892.7819603,0.0002932666786456357,7.367205060974802e-05,0.0006032954180869835,8.535729696589398e-05
-1017559.4837343799,0.0002932703610688946,7.367292365100276e-05,0.0006033027214022602,8.535830594388609e-05
-1017226.1855084597,0.000293274123603264,7.367381568919303e-05,0.0006033101836393224,8.535933687672485e-05
-1016892.8872825395,0.0002932779662677564,7.367472672567501e-05,0.00060331780481116,8.536038976573248e-05
-1016559.5890566192,0.00029328188909838714,7.367565676143899e-05,0.0006033255849258605,8.536146461225595e-05
-1016226.290830699,0.0002932858920862146,7.367660579777551e-05,0.000603333523994293,8.53625614176794e-05
-1015892.9926047788,0.0002932899752235821,7.367757383584902e-05,0.0006033416220280894,8.536368018341816e-05
-1015559.6943788587,0.00029329413852855927,7.367856087690687e-05,0.0006033498790367382,8.536482091091503e-05
-1015226.3961529385,0.0002932983820042641,7.36795669222299e-05,0.0006033582950312801,8.536598360162474e-05
-1014893.0979270183,0.00029330270565259956,7.368059197317416e-05,0.0006033668700251353,8.536716825705398e-05
-1014559.799701098,0.0002933071094855748,7.368163603104226e-05,0.0006033756040285028,8.536837487871771e-05
-1014226.5014751778,0.00029331159350749314,7.36826990971558e-05,0.0006033844970526223,8.536960346818028e-05
-1013893.2032492576,0.00029331615772225264,7.368378117292994e-05,0.0006033935491104273,8.537085402701076e-05
-1013559.9050233375,0.000293320802139848,7.368488225972258e-05,0.0006034027602134521,8.53721265568083e-05
-1013226.6067974173,0.0002933255267649062,7.368600235895559e-05,0.0006034121303738929,8.537342105924057e-05
-1012893.308571497,0.0002933303316046587,7.368714147212862e-05,0.0006034216596057734,8.537473753594682e-05
-1012560.0103455768,0.00029333521666692467,7.368829960069541e-05,0.0006034313479201384,8.53760759886306e-05
-1012226.7121196566,0.0002933401819570781,7.368947674601524e-05,0.0006034411953303271,8.537743641900044e-05
-1011893.4138937364,0.00029334522748397727,7.369067290987941e-05,0.0006034512018511095,8.5378818828827e-05
-1011560.1156678163,0.00029335035325363647,7.369188809358547e-05,0.0006034613674946103,8.538022321987119e-05
-1011226.8174418961,0.0002933555592734551,7.36931222988353e-05,0.0006034716922744367,8.538164959396059e-05
-1010893.5192159758,0.00029336084555102476,7.369437552722782e-05,0.0006034821762061514,8.538309795291591e-05
-1010560.2209900556,0.0002933662120953994,7.369564778030852e-05,0.0006034928193003543,8.538456829859443e-05
-1010226.9227641354,0.00029337165890959166,7.369693905973575e-05,0.0006035036215752286,8.538606063289589e-05
-1009893.6245382152,0.00029337718600848774,7.369824936721798e-05,0.0006035145830427367,8.538757495774775e-05
-1009560.326312295,0.00029338279339247327,7.369957870448001e-05,0.000603525703721547,8.538911127508565e-05
-1009227.0280863747,0.00029338848107940933,7.370092707314669e-05,0.0006035369836191292,8.539066958688817e-05
-1008893.7298604546,0.00029339424906783243,7.37022944750501e-05,0.0006035484227585924,8.539224989518674e-05
-1008560.4316345344,0.0002934000973710102,7.370368091184222e-05,0.000603560021150475,8.53938522019732e-05
-1008227.1334086142,0.000293406025994588,7.370508638545058e-05,0.0006035717788117609,8.539547650934647e-05
-1007893.835182694,0.00029341203494765794,7.370651089759856e-05,0.0006035836957585142,8.539712281937585e-05
-1007560.5369567738,0.000293418124240947,7.370795445014585e-05,0.0006035957720067164,8.539879113418313e-05
-1007227.2387308535,0.0002934242938815195,7.370941704502663e-05,0.0006036080075726071,8.540048145592317e-05
-1006893.9405049334,0.0002934305438780126,7.371089868405791e-05,0.0006036204024726159,8.540219378676386e-05
-1006560.6422790132,0.0002934368742405103,7.3712399369142e-05,0.0006036329567235862,8.540392812891588e-05
-1006227.344053093,0.00029344328497756797,7.371391910230599e-05,0.0006036456703432117,8.54056844846065e-05
-1005894.0458271728,0.0002934497760989468,7.371545788547436e-05,0.0006036585433474327,8.540746285610939e-05
-1005560.7476012525,0.0002934563476123247,7.371701572059387e-05,0.0006036715757527962,8.540926324569092e-05
-1005227.4493753323,0.0002934629995289186,7.371859260967435e-05,0.0006036847675789038,8.541108565569391e-05
-1004894.1511494122,0.00029346973185667225,7.372018855484434e-05,0.000603698118841799,8.541293008845906e-05
-1004560.852923492,0.00029347654460672466,7.372180355809575e-05,0.0006037116295603096,8.541479654634966e-05
-1004227.5546975718,0.00029348343778859236,7.372343762154268e-05,0.0006037252997539494,8.541668503178493e-05
-1003894.2564716516,0.000293490411411549,7.372509074730793e-05,0.0006037391294379937,8.541859554718135e-05
-1003560.9582457313,0.0002934974654860022,7.37267629375598e-05,0.0006037531186335956,8.542052809501606e-05
-1003227.6600198111,0.00029350460002195523,7.372845419443099e-05,0.0006037672673605207,8.542248267777302e-05
-1002894.361793891,0.0002935118150289411,7.373016451999783e-05,0.0006037815756330382,8.542445929795668e-05
-1002561.0635679708,0.0002935191105177984,7.37318939165894e-05,0.0006037960434753058,8.542645795812867e-05
-1002227.7653420506,0.00029352648650009803,7.373364238650354e-05,0.000603810670906965,8.542847866086037e-05
-1001894.4671161303,0.00029353394298598255,7.37354099319054e-05,0.0006038254579415999,8.543052140875244e-05
-1001561.1688902101,0.00029354147998564376,7.373719655501338e-05,0.0006038404046074678,8.543258620442863e-05
-1001227.8706642899,0.00029354909750929403,7.37390022583047e-05,0.0006038555109266596,8.543467305057854e-05
-1000894.5724383697,0.000293556795568497,7.374082704405934e-05,0.0006038707769012619,8.543678194985997e-05
-1000561.2742124496,0.00029356457417565874,7.374267091463461e-05,0.0006038862025577168,8.543891290498806e-05
-1000227.9759865293,0.0002935724333398756,7.374453387238536e-05,0.0006039017879348056,8.54410659187417e-05
-999894.6777606091,0.000293580373072124,7.374641591980883e-05,0.0006039175330454686,8.544324099387824e-05
-999561.3795346889,0.00029358839338585965,7.374831705916378e-05,0.0006039334379012144,8.544543813318614e-05
-999228.0813087687,0.00029359649429206314,7.375023729308086e-05,0.0006039495025320315,8.544765733952564e-05
-998894.7830828485,0.0002936046758015487,7.375217662401928e-05,0.0006039657269583982,8.54498986157373e-05
-998561.4848569283,0.0002936129379267399,7.375413505443091e-05,0.0006039821111985282,8.545216196471103e-05
-998228.186631008,0.00029362128067954096,7.375611258693465e-05,0.0006039986552790008,8.545444738937132e-05
-997894.8884050879,0.0002936297040708072,7.375810922399495e-05,0.0006040153592202456,8.545675489267005e-05
-997561.5901791677,0.00029363820811438405,7.376012496820325e-05,0.0006040322230434389,8.545908447756945e-05
-997228.2919532475,0.00029364679282134064,7.376215982230637e-05,0.0006040492467736582,8.546143614707683e-05
-996894.9937273273,0.00029365545820335295,7.376421378873752e-05,0.0006040664304324712,8.546380990423147e-05
-996561.695501407,0.00029366420427593705,7.376628687040037e-05,0.0006040837740433472,8.546620575209066e-05
-996228.3972754868,0.0002936730310482312,7.376837906972002e-05,0.0006041012776304844,8.546862369373535e-05
-995895.0990495667,0.00029368193853416527,7.377049038957955e-05,0.0006041189412160478,8.547106373230643e-05
-995561.8008236465,0.0002936909267470725,7.377262083265682e-05,0.0006041367648254759,8.547352587093274e-05
-995228.5025977263,0.0002936999956999989,7.377477040175293e-05,0.0006041547484815511,8.547601011278311e-05
-994895.2043718061,0.0002937091454034557,7.377693909971201e-05,0.0006041728922097872,8.547851646109685e-05
-994561.9061458858,0.000293718375874356,7.377912692901426e-05,0.0006041911960324705,8.54810449190707e-05
-994228.6079199656,0.0002937276871240242,7.378133389297377e-05,0.0006042096599776763,8.548359548999185e-05
-993895.3096940455,0.0002937370791659653,7.378355999407084e-05,0.0006042282840661678,8.548616817712704e-05
-993562.0114681253,0.0002937465520137163,7.378580523539835e-05,0.0006042470683269386,8.54887629838142e-05
-993228.7132422051,0.0002937561056808531,7.378806961991092e-05,0.0006042660127839499,8.54913799134e-05
-992895.4150162848,0.0002937657401804813,7.379035314993368e-05,0.0006042851174606954,8.549401896925426e-05
-992562.1167903646,0.00029377545552910275,7.37926558296235e-05,0.0006043043823890487,8.549668015479807e-05
-992228.8185644444,0.00029378525173682655,7.37949776611277e-05,0.0006043238075886963,8.54993634734603e-05
-991895.5203385242,0.00029379512882170056,7.379731864717687e-05,0.0006043433930867942,8.550206892868685e-05
-991562.2221126041,0.0002938050867935241,7.379967879154674e-05,0.0006043631389111552,8.550479652399467e-05
-991228.9238866839,0.00029381512567166953,7.380205809702525e-05,0.0006043830450899395,8.550754626289582e-05
-990895.6256607636,0.00029382524546556405,7.380445656651566e-05,0.0006044031116474236,8.551031814893793e-05
-990562.3274348434,0.0002938354461945239,7.380687420335434e-05,0.0006044233386121706,8.551311218570768e-05
-990229.0292089232,0.00029384572786916245,7.38093110104533e-05,0.0006044437260105519,8.551592837680624e-05
-989895.730983003,0.000293856090506724,7.381176699125556e-05,0.0006044642738715012,8.551876672586278e-05
-989562.4327570829,0.0002938665341219676,7.381424214883962e-05,0.0006044849822222961,8.552162723656965e-05
-989229.1345311626,0.0002938770587289479,7.381673648626045e-05,0.0006045058510897939,8.55245099126021e-05
-988895.8363052424,0.0002938876643430813,7.381925000698917e-05,0.0006045268805034758,8.552741475767816e-05
-988562.5380793222,0.0002938983509805063,7.382178271407844e-05,0.0006045480704908989,8.553034177557257e-05
-988229.239853402,0.00029390911865532143,7.382433461095798e-05,0.000604569421081667,8.553329097005097e-05
-987895.9416274818,0.0002939199673845473,7.38269057009562e-05,0.0006045909323047952,8.553626234491905e-05
-987562.6434015617,0.00029393089718230146,7.382949598725619e-05,0.000604612604187719,8.553925590403246e-05
-987229.3451756414,0.0002939419080648964,7.383210547338176e-05,0.0006046344367613548,8.554227165125734e-05
-986896.0469497212,0.00029395300004911415,7.383473416264126e-05,0.0006046564300545373,8.554530959048085e-05
-986562.748723801,0.0002939641731500981,7.383738205848234e-05,0.0006046785840970795,8.554836972563666e-05
-986229.4504978808,0.00029397542738306533,7.384004916426454e-05,0.0006047008989184953,8.555145206069185e-05
-985896.1522719606,0.0002939867627661083,7.384273548351593e-05,0.0006047233745499842,8.555455659959286e-05
-985562.8540460403,0.00029399817931476016,7.384544101972966e-05,0.0006047460110218604,8.555768334639426e-05
-985229.5558201201,0.00029400967704445264,7.38481657763824e-05,0.0006047688083640241,8.556083230512479e-05
-984896.2575942,0.00029402125597365714,7.385090975712827e-05,0.0006047917666077175,8.556400347985208e-05
-984562.9593682798,0.0002940329161177028,7.385367296539489e-05,0.0006048148857840588,8.556719687468566e-05
-984229.6611423596,0.0002940446574934288,7.385645540476222e-05,0.000604838165924522,8.557041249374609e-05
-983896.3629164394,0.00029405648011912545,7.385925707894869e-05,0.0006048616070601146,8.557365034120548e-05
-983563.0646905191,0.00029406838401049146,7.386207799153308e-05,0.0006048852092222358,8.557691042123781e-05
-983229.766464599,0.0002940803691843186,7.386491814622984e-05,0.000604908972443921,8.558019273806301e-05
-982896.4682386788,0.0002940924356599065,7.386777754671858e-05,0.0006049328967573338,8.558349729593983e-05
-982563.1700127586,0.00029410458345346653,7.387065619672343e-05,0.0006049569821943069,8.558682409913296e-05
-982229.8717868384,0.000294116812581544,7.387355409991073e-05,0.0006049812287875997,8.559017315195718e-05
-981896.5735609181,0.0002941291230635564,7.38764712600942e-05,0.0006050056365698534,8.5593544458736e-05
-981563.2753349979,0.00029414151491645283,7.387940768111435e-05,0.0006050302055741793,8.559693802382925e-05
-981229.9771090777,0.00029415398815853553,7.388236336669063e-05,0.000605054935833982,8.560035385164907e-05
-980896.6788831576,0.0002941665428067082,7.3885338320745e-05,0.000605079827383325,8.56037919465993e-05
-980563.3806572374,0.00029417917888033415,7.388833254709473e-05,0.0006051048802546542,8.560725231314224e-05
-980230.0824313172,0.00029419189639667153,7.38913460496915e-05,0.0006051300944835764,8.561073495575155e-05
-979896.7842053969,0.0002942046953755646,7.389437883243068e-05,0.0006051554701029412,8.561423987894278e-05
-979563.4859794767,0.000294217575833703,7.389743089924059e-05,0.0006051810071477406,8.561776708724499e-05
-979230.1877535565,0.0002942305377913033,7.390050225410794e-05,0.0006052067056524193,8.5621316585236e-05
-978896.8895276363,0.00029424358126580477,7.390359290097772e-05,0.0006052325656517804,8.562488837750664e-05
-978563.5913017162,0.00029425670627681466,7.390670284399413e-05,0.000605258587180379,8.562848246869758e-05
-978230.2930757959,0.00029426991284308,7.39098320871224e-05,0.0006052847702749748,8.56320988634511e-05
-977896.9948498757,0.00029428320098381027,7.391298063439695e-05,0.0006053111149703711,8.563573756644797e-05
-977563.6966239555,0.00029429657071803424,7.391614848998443e-05,0.00060533762130171,8.563939858243492e-05
-977230.3983980353,0.00029431002206548127,7.39193356580271e-05,0.0006053642893058853,8.564308191611665e-05
-976897.1001721151,0.00029432355504489707,7.392254214259564e-05,0.0006053911190180194,8.564678757228785e-05
-976563.8019461948,0.00029433716967618455,7.392576794790108e-05,0.000605418110474801,8.565051555574415e-05
-976230.5037202747,0.0002943508659796405,7.392901307813534e-05,0.0006054452637139267,8.565426587133594e-05
-975897.2054943545,0.00029436464397422315,7.39322775375655e-05,0.0006054725787709922,8.565803852389738e-05
-975563.9072684343,0.00029437850368048586,7.393556133044136e-05,0.0006055000556839811,8.566183351834779e-05
-975230.6090425141,0.0002943924451179899,7.393886446097036e-05,0.000605527694489765,8.566565085959376e-05
-974897.3108165939,0.00029440646830726605,7.394218693358106e-05,0.0006055554952263126,8.566949055258444e-05
-974564.0125906736,0.00029442057326831746,7.39455287523836e-05,0.0006055834579293802,8.567335260230193e-05
-974230.7143647535,0.0002944347600220976,7.394888992196831e-05,0.0006056115826401488,8.567723701376177e-05
-973897.4161388333,0.00029444902858892155,7.395227044660967e-05,0.000605639869394031,8.568114379200297e-05
-973564.1179129131,0.0002944633789886042,7.395567033072683e-05,0.0006056683182307674,8.568507294208682e-05
-973230.8196869929,0.0002944778112431273,7.395908957863806e-05,0.0006056969291889071,8.56890244691198e-05
-972897.5214610726,0.0002944923253729416,7.396252819508124e-05,0.0006057257023080393,8.569299837822221e-05
-972564.2232351524,0.0002945069213984751,7.396598618429285e-05,0.00060575463762586,8.569699467455236e-05
-972230.9250092322,0.0002945215993419694,7.396946355086792e-05,0.0006057837351829667,8.570101336330779e-05
-971897.6267833121,0.0002945363592244824,7.397296029931383e-05,0.0006058129950176427,8.570505444970224e-05
-971564.3285573919,0.00029455120106690216,7.397647643421443e-05,0.0006058424171704686,8.570911793896297e-05
